-32.91300201,489.0333862
-40.97723389,595.8010864
-49.19291687,690.6186523
-58.55970764,770.0892944
-65.5796814,828.1619873
-71.09849548,855.4759521
-75.59537506,843.2169189
-77.85684204,772.4269409
-79.98271942,616.1154175
-82.80896759,374.1008911
-84.37638092,84.70536804
-86.65740204,-202.5187073
-88.13006592,-445.3460999
-89.58454132,-592.6081543
-90.84770966,-674.9441528
-91.03739166,-667.743103
-91.29473877,-650.4689941
-92.97470856,-604.5742188
-91.8712616,-548.8324585
-91.99517059,-483.3312378
-91.60379028,-427.9541931
-93.49082947,-381.4684448
-97.94143677,-335.2126465
-102.0936584,-308.6841736
-109.1056595,-277.6177063
-114.3974152,-261.1136169
-120.7947693,-246.4751892
-126.5157623,-250.2503967
-135.4331055,-245.8135681
-146.9573517,-250.0288696
-158.3262634,-252.8455505
-169.5812988,-259.2285156
-180.8895416,-268.6736755
-193.8776093,-281.3682861
-208.4635468,-296.0419312
-223.7644958,-311.0183716
-239.6035004,-326.0434875
-256.3946533,-341.559082
-272.4358215,-353.7969971
-285.844574,-364.3092041
-300.1292114,-372.6553345
-311.057373,-378.855835
-323.6347351,-384.0690918
-336.2316895,-387.4047852
-348.5438232,-389.5551147
-361.9959412,-389.5297852
-371.2090454,-387.5776978
-383.4899292,-384.3985596
-391.9801636,-379.0585327
-402.1672974,-372.1967163
-409.756897,-364.2965088
-414.9370117,-355.4994507
-420.5445557,-347.053833
-428.1291809,-339.0380859
-436.3298035,-332.4017334
-446.9354248,-325.4246216
-457.6235657,-319.4625854
-467.3093872,-310.8564453
-475.9701538,-301.6907654
-485.5539246,-291.9099426
-493.1835022,-282.0526733
-505.250061,-271.7528687
-510.742218,-261.5986023
-516.9219971,-253.1162415
-517.2932129,-244.3686523
-515.9173584,-234.4377747
-511.1351318,-224.1191101
-509.593689,-213.7609863
-520.6453247,-201.2121887
-542.7457886,-187.7389221
-585.2071533,-173.3630981
-639.1218872,-157.5575562
-668.8189087,-140.2259216
-666.6309204,-122.4424133
-645.0134888,-103.013031
-654.0770264,-82.91848755
-702.0621338,-62.28393555
-758.6191406,-39.4642334
-797.6893921,-14.4503479
-822.7666016,10.80633545
-835.3458252,35.82984924
-830.8944092,61.45111084
-816.994751,87.55517578
-803.0093994,113.1497498
-796.9379272,137.5962219
-780.9788818,160.7229919
-753.2571411,180.5271912
-724.3096924,198.4668121
-700.9202881,213.2792358
-689.0628662,224.5851746
-686.5522461,232.6213226
-671.5874023,239.0881348
-626.7978516,244.3050842
-540.2590942,248.9163818
-425.6578064,255.0408173
-311.960083,261.7430115
-211.8914185,267.3748169
-126.3719482,274.7660828
-56.41394043,282.5631104
-28.48235703,293.9187317
-72.75406647,302.9123535
-179.8960724,312.0198669
-306.0384216,322.3026733
-424.9180298,335.3544312
-523.5966797,350.787262
-584.1695557,368.3067017
-600.1802979,386.5922241
-585.7435913,407.0071716
-562.4263306,427.5331726
-535.5199585,447.7903137
-510.11026,467.6096191
-500.0828247,487.477417
-497.9033508,506.526886
-505.672699,525.2091675
-530.9433594,541.4204712
-571.711792,553.4696655
-629.1525879,565.7219238
-678.130188,580.2655029
-705.9196167,592.8562622
-723.4113159,605.163208
-745.9945068,616.9327393
-755.0745239,629.0535889
-724.7578125,639.7431641
-650.8432007,650.0147095
-564.2559814,658.2720947
-500.8297424,668.1052246
-474.8437805,678.0634155
-512.24646,689.0251465
-580.1228027,700.784729
-664.7462769,713.9938965
-729.6962891,728.8791504
-727.0582275,744.263855
-716.4919434,761.3179932
-664.06427,779.6337891
-611.6563721,794.8803711
-557.6448364,811.1256104
-504.5508118,823.6723633
-457.2786865,835.0093994
-409.7577515,845.7441406
-369.384613,856.5691528
-328.5114441,866.9937744
-292.7839966,876.5775146
-254.3496704,888.8095703
-217.3166199,901.732666
-179.9483337,914.9887085
-142.5539703,926.7818604
-106.9327164,940.3597412
-73.77827454,954.5645752
-40.84300232,972.4660034
-8.634029388,993.4627075
24.49329376,1016.729004
54.37016296,1039.988037
82.80151367,1062.717529
110.7853165,1083.778809
135.6390381,1099.731445
162.4429932,1112.404053
183.1982422,1121.514648
206.096344,1126.184082
227.5830383,1126.46582
246.4165802,1121.512939
262.5112305,1113.124146
280.6430054,1101.477539
299.8543396,1088.870117
317.3771362,1076.316895
334.6375122,1065.225586
350.7796021,1054.376953
374.0812378,1044.330078
400.8388367,1037.86377
431.7328186,1029.777344
462.7918091,1023.070862
494.3582153,1018.772522
524.2949219,1014.444214
550.0210571,1011.463379
576.6835938,1006.098633
583.0639648,999.84729
581.085083,992.2350464
572.1364746,983.0096436
561.5672607,973.296936
576.8054199,963.5328369
615.3182983,951.6173096
666.1913452,940.2971802
701.4465942,929.5599365
707.4782715,920.666748
687.7325439,911.0803223
660.8701172,902.2209473
643.8556519,893.5267334
647.6590576,884.9953003
666.9501953,878.050415
706.3535767,871.9368896
751.928772,868.0172119
772.7227783,863.1722412
745.2386475,857.8988037
685.100708,854.1591797
628.1213379,851.3017578
608.3474121,848.5955811
632.9522705,846.2355957
688.9193115,842.8203125
751.093689,836.7567139
808.4290161,831.1999512
853.2420044,824.3830566
872.9140625,814.8071899
860.5966187,802.4492188
819.6756592,790.800293
772.3528442,777.8401489
743.0682373,764.7180176
747.7919312,751.3378296
777.2180786,737.6071777
814.5985718,723.4394531
843.3805542,709.9473267
860.9026489,696.1463013
872.8811646,681.586853
891.9925537,666.1352539
916.8494873,651.628479
940.071167,635.8092041
958.9678955,620.1181641
977.7541504,604.8602905
999.9240723,590.1071167
1014.464844,578.2015991
1013.768066,567.0759888
999.6365967,558.3909912
974.1039429,553.1782227
941.3303223,549.0251465
915.4320068,547.1362915
897.4401855,543.7224121
878.6815186,539.3475342
860.2851563,536.020813
851.5720215,531.6528931
846.8538818,526.3839111
843.4291382,522.3445435
834.8959961,520.0333862
826.6323853,517.5777588
816.2856445,516.3440552
807.9074707,518.0158081
798.0361938,517.9063721
789.5334473,519.8748169
779.7801514,522.0852661
772.0040283,525.7349243
764.453064,528.6812744
758.2286987,536.1573486
750.7409668,539.9793701
744.1434326,552.6604004
737.3674316,561.9269409
730.8682861,580.7410278
725.8267822,596.3674927
723.2543945,622.8862305
720.437439,648.4381714
719.9251709,686.2474365
717.6435547,726.3164673
715.3131104,778.3353271
714.5194092,829.286499
715.7468262,901.9107666
716.5425415,989.2869873
721.1427002,1093.324219
724.9706421,1205.3396
729.5632324,1312.296753
731.7356567,1413.84082
734.8695068,1511.255127
740.6185303,1606.491089
743.046814,1689.569092
746.6264648,1738.059326
750.9279175,1720.875732
752.6397705,1615.727783
752.7706299,1421.806396
753.1832275,1153.40332
753.0073242,852.0475464
751.7683105,567.4005127
748.0406494,319.3921204
738.8625488,97.72766113
729.74823,-102.2174072
717.0647583,-270.4199829
701.5872803,-391.463501
681.1394043,-445.9180298
664.0233765,-480.4072876
646.9625854,-485.7006836
627.6065674,-482.0437317
607.6289673,-457.5433655
587.7232056,-437.9081421
567.0241089,-416.1719971
546.3846436,-396.6572266
525.0835571,-379.7742004
504.4725647,-358.3591919
486.25,-342.1439209
467.1546021,-325.8527832
448.6247253,-313.387146
434.34729,-301.2433472
419.684967,-293.0133667
406.1760864,-285.8104553
393.3417969,-280.8852844
381.6802979,-277.2543335
369.7935181,-273.7368774
359.0145874,-272.5619507
348.8952026,-275.6618347
338.1489868,-281.6128235
329.6796265,-288.1879578
320.7325439,-297.4230957
314.956604,-307.7396851
310.1335449,-319.8552246
303.2697144,-332.5555725
299.4163818,-347.7492981
295.0288391,-363.0003052
292.9230347,-379.1876221
289.6021729,-396.1140442
285.7137146,-411.8186035
283.8407593,-427.5374451
283.1816101,-440.1635437
283.5261841,-450.9925537
283.9207458,-459.9250488
284.1191711,-468.3023071
285.5621338,-478.230072
286.3364258,-486.6142273
287.5568848,-493.5914001
287.8555603,-499.1860657
289.4716797,-502.7315674
291.1306458,-502.9936523
291.0820007,-501.7774353
291.5423279,-500.5704346
290.7885742,-500.4907227
290.2496033,-499.9810181
289.4257813,-499.9535522
287.9310303,-497.9482117
284.1523438,-492.0801697
282.6609802,-480.1957397
279.4574585,-467.0170593
275.5105591,-449.1730042
271.500061,-428.9896545
268.519104,-401.8864136
267.0624084,-377.3945313
267.4793701,-349.388916
267.0343018,-320.6308289
266.4223633,-286.411438
265.1540527,-252.7304382
266.9062195,-216.9716797
268.9840393,-177.8149719
271.800354,-136.1089325
277.0900879,-94.23652649
282.3688965,-53.52494812
283.9668274,-13.68981934
284.5397034,23.63117218
284.6809998,60.50814056
286.9197693,96.00733185
287.8456421,130.3345337
288.6497803,163.1485443
289.7115479,194.3454895
288.7355652,224.4021912
286.0998535,252.941864
282.4771423,283.5262451
278.6311035,307.2835083
272.6984558,329.0896912
267.7637634,348.0865784
264.1982117,365.2839661
263.218811,381.6790771
261.4639587,394.8455505
261.1016846,407.3776245
263.5802612,420.1448669
265.1080933,432.7321167
265.3821411,445.9294739
264.3841553,458.9572449
263.1387024,472.5034485
262.3309021,485.4036255
265.0563965,497.1675415
269.5367737,509.6029053
274.8307495,521.7366333
282.0397034,534.0979614
289.0109863,546.5064697
295.5655518,558.4023438
301.0349731,571.2111206
306.0234985,582.1179199
310.6941223,591.9378662
314.8800049,599.1889038
318.5467834,603.579895
323.5852661,606.3253174
330.2964172,606.2417603
336.9151001,602.5272827
345.1800537,592.7359009
352.2893066,582.9744263
360.0514526,571.4249268
367.4587097,556.0820313
377.010437,538.8781738
385.5270386,518.8082275
393.9153137,492.8135986
404.0334167,469.3688354
413.145752,443.4153442
425.6075439,415.7222595
439.1787415,386.0646362
453.7704468,357.7288818
467.2277832,331.7390137
483.7323303,306.2446289
501.7725525,282.4460754
522.8560181,259.9110718
541.359436,237.376709
563.4547729,215.4755859
584.1751099,193.1659546
608.0731201,170.2240753
634.0282593,147.1748657
662.442627,123.2721863
692.0414429,97.56712341
721.9213257,69.90505981
752.5891724,42.15611267
785.9151611,15.11091614
819.0266113,-12.58324432
858.1756592,-38.55570984
897.5238037,-63.38117981
944.5454102,-86.5376358
992.6403809,-108.4669495
1035.233398,-128.377182
1063.904785,-145.194931
1072.121826,-159.7367859
1055.163696,-171.4867706
1024.685547,-181.0962067
1000.45166,-189.3128967
990.9793701,-194.8993073
988.4452515,-199.1470947
980.534668,-201.9015045
959.3380737,-203.6996613
935.0695801,-203.1127167
922.8242188,-200.0062561
934.7614136,-194.8594971
972.5010986,-187.4768982
1022.321167,-179.6994934
1051.828735,-171.5837097
1059.217773,-162.866806
1040.889526,-154.6384277
1004.795776,-144.1388397
965.27771,-134.2679291
934.0968018,-124.9394913
913.6104736,-116.278244
908.8378906,-108.1141586
918.1723633,-101.5686874
933.6383057,-94.32563782
947.9255371,-88.57536316
957.3999023,-81.75406647
950.074707,-74.42037964
924.3969116,-68.39555359
888.2178345,-63.6861496
851.4279785,-58.84843445
819.553833,-54.90409088
818.1479492,-51.73226166
852.387207,-47.62644958
913.0257568,-43.90167999
990.1557617,-39.7405014
1072.002686,-34.50928497
1125.3302,-30.02536011
1127.027954,-25.35497284
1093.950317,-21.15930939
1061.631226,-16.85136414
1041.830566,-12.9669342
1041.273193,-10.56791687
1040.803101,-7.240188599
1021.478333,-4.043586731
973.6271973,-2.051940918
906.3812866,0.384529114
854.3431396,2.240242004
852.2982178,3.907546997
907.8597412,4.104324341
992.6037598,4.097114563
1054.206299,3.472000122
1067.588013,1.985214233
1055.246094,0.615791321
1048.428223,-1.577163696
1061.85498,-4.503417969
1104.318848,-7.02456665
1174.487061,-9.649932861
1237.041992,-12.73251343
1257.924194,-16.62016296
1236.821899,-19.87301636
1196.114136,-23.78897095
1148.151489,-27.36274719
1062.837158,-30.83981323
943.2918701,-35.21313477
788.1881104,-39.70117188
653.869751,-44.12268066
596.5263672,-48.05409241
539.4841309,-51.10449219
545.8013306,-53.4967041
534.204834,-53.84716797
543.5300293,-52.92337036
557.4192505,-53.03936768
570.3361206,-52.09257507
586.81073,-50.28318787
587.6585083,-49.0592804
594.168396,-47.24154663
594.1184692,-45.43630981
597.0407715,-43.67947388
588.1105957,-41.95185852
584.9209595,-38.53118896
572.647522,-33.80259705
565.9338989,-31.96430969
556.1807251,-28.54344177
543.6757202,-27.7348175
530.6609497,-28.54936218
518.4689941,-30.1519928
505.0443726,-31.85809326
491.596344,-35.2766571
480.0382385,-37.91639709
468.8772888,-41.10704041
456.9196777,-44.63755798
445.0496521,-48.18768311
431.5333557,-53.70939636
419.4776001,-57.24526978
407.7000732,-64.97076416
396.3208618,-64.23638916
385.6143188,-68.71867371
374.2149658,-58.29049683
361.5924377,-49.85903931
353.6380005,-22.68545532
346.3769531,7.438591003
341.2486877,56.3319931
336.4526978,108.0258865
329.8305664,177.1156921
326.0792236,259.6494446
321.9755554,361.7329712
318.2536011,478.4950562
312.4128418,612.9517822
307.958252,750.1253662
302.231842,883.6624756
299.4785156,1018.712524
298.2221069,1162.901611
297.3328247,1302.398438
297.7927551,1395.30481
299.1918945,1411.458374
301.0827637,1340.257446
304.993988,1178.713867
310.3263855,930.6685181
313.6948853,620.2963867
317.2044067,295.8240967
321.5877686,11.28845215
326.1004028,-218.8158569
332.8543701,-323.6134644
337.4193115,-388.762207
345.1913757,-337.8503723
353.6315308,-299.6080933
361.3863831,-216.552948
369.4029541,-149.9842224
375.3329163,-88.19161987
378.7922974,-23.241745
382.0697937,19.00611877
387.5525513,70.55948639
391.3825684,106.9906769
395.0783386,143.5671387
397.6168823,156.5610352
398.9746399,179.6583099
398.4376221,186.2223969
398.1020813,202.3756104
397.0685425,211.0248871
396.3626099,220.6721802
396.9797668,226.5498505
396.0335999,231.346344
394.0292664,237.0640259
392.3469238,241.1334229
393.3591919,245.4505615
393.9309998,248.5128174
394.5775452,252.0673065
395.5447083,256.6309814
397.6497498,261.298584
398.4963989,266.5066833
399.0341797,272.9408875
399.9714355,278.3480835
403.6264954,283.2390137
407.939209,287.7462158
413.1017456,292.6777344
419.4175415,294.7022095
424.3022461,294.9255066
428.087616,295.1071777
431.6069946,294.650116
433.5164185,292.7840881
436.2174683,291.5133057
440.0456238,289.7631226
444.7468262,287.5178223
446.1858826,283.6409302
446.7966919,279.1463013
446.3611755,273.6949463
447.0996094,267.1540222
442.8034058,260.9247742
438.8952026,254.235672
433.9158325,248.1370697
427.2630615,242.5902405
419.2375183,237.5175018
409.7383728,232.9476624
398.7561035,228.2554169
385.9882813,224.4609375
374.9829407,220.3348389
363.8414917,216.3152924
349.3548889,212.9438629
335.9890442,209.9136047
322.0985107,207.0909729
308.9915466,205.6840973
297.3808594,203.9561768
289.5236816,202.54245
285.596405,201.6172943
285.9346619,201.0623169
283.588562,200.4829254
281.940979,199.00737
279.0099792,197.4723969
276.8708496,195.9561005
276.3503723,192.8825531
277.8354492,189.9884033
278.5061951,185.8234711
276.803833,182.759201
277.491333,179.6028137
276.5811462,177.1061096
275.7067871,176.0060577
273.833313,174.3650513
271.7686462,175.3025665
268.6152649,177.4044342
264.6889648,180.5408325
258.3386536,184.6090851
251.8481445,188.430954
248.6545715,193.4665222
244.4181671,198.4399872
242.2645416,203.6368713
238.3073273,209.64328
233.5232697,215.6617737
226.4039001,223.1720276
219.949295,230.6457214
213.6192017,238.1535339
206.5258942,246.2948608
200.5305786,253.2993317
195.6353455,262.2921143
190.6291199,266.0922852
185.1222534,267.0157166
179.4654846,265.390564
172.3536682,260.0322876
168.0412903,253.3834534
163.3943634,245.897522
158.956955,237.3663177
153.7881927,229.6098938
147.6757813,222.1247406
141.907608,215.6459961
136.0227966,209.5644226
129.780777,204.8204041
126.8476105,201.5575562
123.7924805,197.3274078
120.7849121,194.499649
117.7858276,191.4860229
114.7457275,188.4785767
111.901474,187.1012115
109.5873108,187.6105194
107.7851486,189.82341
106.7982483,194.1053467
104.4591827,199.1592712
102.3742218,204.2673035
103.1933441,206.6788635
103.4191589,209.1134186
105.0741501,207.0237427
108.5973358,207.412384
111.8375015,207.3904266
116.1307068,207.4871674
120.4655457,207.7153931
124.3660431,206.8163605
129.5024719,205.2090759
135.4527435,202.8517914
140.4051056,197.7959595
144.5934296,189.2554626
145.4227295,177.1762695
147.1689301,161.3433228
147.5054321,142.6011963
148.3666687,122.1646576
147.484848,101.0103226
146.62146,79.43406677
145.7507019,58.69168472
141.8728943,39.81618881
138.2773895,21.50483513
135.2666931,4.948314667
131.9712982,-9.364976883
128.860611,-22.14500427
124.4194946,-33.60306549
122.8621674,-44.76397324
119.5543823,-55.57514191
115.6712952,-65.79709625
112.7303848,-74.61764526
111.0774384,-81.52574158
110.0360031,-87.45488739
113.2273636,-90.9504776
112.1880264,-93.49528503
113.6778717,-93.87037659
115.5993347,-92.14511871
118.2089462,-89.61999512
121.6163406,-87.81462097
126.3831635,-87.40565491
130.6455536,-88.12609863
135.8279877,-88.80639648
139.4110718,-91.63330078
144.1599426,-93.30892181
149.3122864,-93.38547516
152.3009033,-92.4388504
155.4972992,-91.30282593
157.7028198,-90.51325226
161.4689941,-89.2943573
162.9151306,-88.82511139
164.6974792,-88.73308563
166.5233612,-88.95146942
168.839447,-91.5694809
170.5976257,-93.30451965
170.5967712,-93.78015137
171.2188263,-94.28277588
170.6567383,-94.21096802
169.0856476,-92.99023438
167.3531036,-91.23132324
166.8296661,-89.20045471
166.4553528,-86.63520813
164.9158325,-82.77294159
164.6945801,-80.37076569
163.6685181,-77.33346558
162.3560333,-73.73886108
157.7430725,-69.05387878
153.3643951,-63.70238113
149.9204712,-58.16719055
147.6941833,-53.28370285
145.0812683,-49.62211609
141.8211823,-45.73131943
137.8111115,-42.57624054
134.0880737,-41.4213562
131.4253235,-41.44748688
129.72258,-41.23731613
127.0669327,-41.37399673
125.9525909,-41.51132965
127.3223114,-42.54187393
127.8226624,-45.47988892
127.8161163,-49.86844254
127.5611572,-55.14625549
127.7425537,-59.71453094
128.300827,-64.99666595
129.5497131,-70.81544495
131.4279327,-77.45576477
133.6205444,-86.0006485
134.6488495,-95.95968628
136.6156769,-106.7377701
140.1699066,-117.8731079
142.9419556,-128.7477417
146.9747467,-139.4075012
152.4980164,-150.5219727
157.1383667,-162.068512
159.3586121,-172.9012604
160.9485474,-184.2720795
161.8538208,-195.2289124
163.6555176,-205.6936188
166.3943481,-215.758316
169.7831726,-224.7852173
169.8201599,-233.8310852
172.872345,-242.184845
175.5318451,-249.1186371
179.2693329,-256.7371216
182.7333221,-261.0885925
188.2825775,-263.8999023
194.4973297,-266.0692749
199.1448059,-268.7307739
205.835968,-271.6868591
212.8198242,-274.0664063
220.0434265,-275.6966248
227.6987915,-277.4049683
235.2318268,-279.0975647
244.0425262,-279.3475037
252.9050903,-279.6729126
262.4638367,-280.3064575
273.1298828,-281.1485596
281.5429382,-282.303772
289.185791,-284.0306091
294.8352051,-285.3894958
298.0001831,-283.4065857
301.7537231,-284.0549927
304.6368103,-280.1670837
306.726532,-279.6848755
306.4151917,-269.7789612
305.565155,-265.2893066
303.0238037,-243.4510498
301.5145264,-223.6990814
298.6187439,-178.8519745
295.0170288,-123.2877502
293.8701477,-49.27368164
292.6512146,36.0206604
290.194458,149.1846924
289.1742554,280.0428467
287.3511353,419.8201904
286.1386414,559.4016113
284.8296814,680.4482422
283.9559937,788.4970703
282.6749268,881.1395264
281.447876,938.8991699
279.6156616,930.2342529
279.6988831,833.7779541
276.9953308,650.1031494
272.5080566,400.0371704
266.887207,120.1109924
261.1793823,-144.0682373
253.8613739,-375.2538757
246.9920959,-526.6689453
240.1669159,-650.9442139
230.3056335,-682.8192139
221.1017914,-714.4681396
209.8598175,-682.1738892
200.2420197,-666.9058838
191.0231934,-634.5772095
181.8415222,-600.5870361
172.8352051,-568.3322754
164.5112457,-532.5388794
157.7670135,-505.097229
154.2372437,-476.4319153
149.7385559,-463.4610291
150.7500458,-443.6010132
150.4295959,-435.9325867
152.6801147,-420.934906
156.5157471,-410.3387756
164.0816193,-398.9338074
174.3872986,-390.1113586
184.1786957,-380.9723206
193.8963928,-373.2936096
205.1840515,-367.0673218
219.3118744,-360.3252869
231.2095947,-355.1418457
242.6583557,-350.1528931
254.3745422,-344.2736511
263.0941772,-336.1826477
272.149292,-328.0584412
279.4592896,-319.5295105
299.0114136,-310.8736877
324.3501282,-301.6588745
360.9731445,-293.5266113
405.8644714,-285.9528198
465.744812,-281.7159424
530.6415405,-278.3910522
580.489624,-275.3209839
622.3950195,-273.5792847
662.9588623,-272.4537354
711.6213379,-271.3425903
777.6287842,-270.1516724
864.9542847,-270.0227966
964.520752,-269.4040527
1059.035645,-269.3196716
1118.80542,-270.3768921
1116.088623,-272.1105042
1049.259521,-273.5005798
919.3721313,-274.5391846
797.1387939,-276.4985046
687.9105225,-277.6491089
596.5209351,-278.7325745
577.300293,-278.5175476
546.6507568,-278.0889587
555.3074341,-275.7056274
548.2747803,-273.4792175
553.7520752,-272.1000366
552.7570801,-271.4081421
551.0956421,-271.2579651
553.2958984,-270.9892883
546.505249,-270.5638428
545.8286133,-270.2846069
537.6057129,-269.5644836
530.0943604,-269.3838501
517.5067139,-267.4830322
506.7372131,-265.1626282
493.4313049,-262.7261353
478.7613831,-260.3118896
465.8708191,-258.3309326
450.2757568,-254.5907288
435.6395264,-249.9356384
420.9884033,-244.5024109
406.6862793,-238.7511292
392.5673523,-233.5187073
379.7564087,-227.7906189
366.1372681,-221.7953491
355.4603577,-216.6862793
342.3453674,-211.5844421
330.2273254,-206.5442505
318.4190063,-201.1990662
309.2598572,-195.9454041
299.9102173,-190.0805054
289.6933289,-183.3572693
281.297821,-176.7723999
273.753418,-170.6401367
267.5969849,-165.4863892
261.8349915,-161.271637
257.2270508,-157.0571289
252.642395,-153.7809906
249.2982483,-150.6187439
244.4577484,-147.094223
239.4558105,-142.7434692
234.3459015,-136.6361847
230.5149384,-129.1027374
226.6269836,-118.976059
222.5470276,-106.9523621
220.657547,-93.62010193
217.9285431,-79.79760742
213.0556946,-63.71798706
209.8293152,-45.52140808
206.9138031,-26.26587677
205.0706787,-4.361808777
205.0030975,19.82259369
203.8860168,45.13927841
201.9127808,70.26050568
201.5270233,100.4909363
201.4019318,132.3079376
201.0444946,166.7118835
199.7630615,200.3596497
199.2802582,238.0163116
203.1333771,272.9870605
205.8659668,310.6526794
207.6859283,349.1860352
211.0758057,387.6764832
213.9944458,424.8581543
217.5474396,464.4441833
222.514679,503.1569824
227.9058075,539.8115845
233.2884369,577.8193359
237.8721924,613.6254883
242.7770386,647.3322144
247.804718,678.8088379
252.5875702,707.2661743
256.4992065,731.8747559
261.6209412,750.7409668
267.4490662,766.2940063
274.0034485,775.4129639
279.785614,779.2449951
286.4541626,778.7527466
291.967041,776.2628174
298.9480896,770.9985962
302.9303589,763.6104736
307.9039917,755.5326538
312.4689941,745.085083
314.5453491,734.6124878
314.2679443,721.2415771
314.5194702,706.9182129
315.6091919,694.84552
313.3276367,685.8497314
310.8560181,676.5622559
306.0172729,667.7431641
303.5015869,660.5853882
301.3074646,654.4206543
298.4664917,647.3157959
294.4414673,640.4212036
288.881958,633.3897705
283.9335022,625.5089111
278.1257935,616.2958984
270.9910278,606.3327637
264.1609497,597.0195923
256.7266541,585.5883789
247.7593994,572.7487793
239.4987793,561.0571289
231.8455811,549.4753418
225.2812805,539.3021851
215.8849335,529.4160156
207.5432434,517.9145508
200.4781494,506.9081421
193.5684814,494.4693604
184.2342224,482.0533447
173.1477661,470.4361572
163.2627563,459.6766663
151.7696686,450.6193237
138.9752197,441.2438965
127.3214417,433.3717651
115.3677826,426.6481018
102.4939575,420.3196411
89.34885406,414.7453003
77.67773438,409.8372803
63.55558014,404.5733032
50.6654892,398.7481995
36.83602524,393.5172119
25.00447464,388.3319397
10.99707413,383.2578125
-2.881221771,379.2574463
-16.2303009,377.4950562
-30.56105423,375.8547974
-46.25234985,374.8616028
-62.91877747,372.8764648
-77.96461487,370.3287048
-92.5974884,366.3401794
-107.7356567,362.5253906
-121.7938843,358.3925781
-136.8870392,352.8637695
-151.9228821,347.4743958
-166.0118408,343.7702026
-179.4169464,340.2714844
-189.7206116,336.8556519
-201.0638885,332.279541
-211.3618317,327.516449
-222.230835,323.4858704
-230.8371277,319.5932007
-238.7445068,315.5710754
-245.1573792,310.6115112
-251.6555328,305.1732178
-257.9119873,299.4773254
-261.7171326,293.7546387
-266.9668274,288.1677551
-271.2289124,282.4290161
-275.2409058,277.094635
-276.4748535,271.089325
-276.1074829,265.4822998
-273.2379761,260.1158447
-270.59021,252.6004639
-267.0476685,243.8108215
-264.6662598,234.7978821
-260.9414673,224.8310242
-257.1944885,213.8554688
-251.72435,200.8188477
-247.1748505,189.1335907
-240.4638824,177.9060669
-234.610611,165.4255066
-226.3464508,153.27948
-218.9632568,141.3000183
-211.1933746,129.6542053
-202.7338867,118.6523361
-194.2658386,108.9910889
-185.6580048,101.2110901
-178.0986023,92.35484314
-172.4046173,85.09380341
-164.9459534,78.88157654
-155.4021912,73.42358398
-148.8879089,69.5169754
-143.2511749,67.25055695
-139.402359,67.60527802
-134.3094482,69.0640564
-129.4828796,72.55230713
-126.0351028,77.62121582
-122.3752823,82.84850311
-118.6080017,87.94412231
-114.623558,92.38111877
-110.0848312,99.55852509
-106.1461487,108.6013107
-101.8549118,119.2306137
-97.82699585,129.8606873
-96.20018005,142.9621735
-95.39246368,155.8638
-93.10293579,171.1255188
-89.61815643,184.5338898
-87.26808929,200.8908081
-84.38764954,216.191452
-81.80119324,234.5304871
-80.1619873,251.3945923
-79.28767395,274.6880798
-76.28572845,295.3167114
-73.41591644,326.1592102
-70.82290649,358.5230713
-67.87604523,411.8953857
-63.78052521,466.1642761
-59.7826004,553.6026611
-56.53753662,662.9981689
-56.39024353,791.53125
-55.82891846,932.5515137
-54.76751709,1081.147949
-55.09440613,1226.921631
-55.68948364,1358.457397
-56.16971588,1455.962524
-55.81031036,1490.322876
-56.34020996,1436.429321
-57.38526917,1285.511719
-58.28663635,1041.318604
-61.18386841,730.1583252
-65.64300537,399.6359863
-72.10726929,107.6889954
-81.63793182,-76.77886963
-90.60136414,-213.4276428
-101.805336,-264.2760925
-112.5245361,-305.479187
-122.9964905,-279.8017273
-132.2234802,-268.8373108
-140.407486,-236.4932251
-149.2671509,-215.2301331
-157.6288452,-193.9926453
-163.3665314,-171.338501
-171.3604889,-161.0185089
-180.7182617,-142.5205231
-188.9221497,-137.9938354
-197.3183594,-126.8816986
-206.6934967,-128.5104218
-213.7030945,-123.6798248
-221.7525635,-122.864624
-228.1943054,-122.2153778
-232.9561768,-122.5299988
-236.5329895,-122.940567
-238.3805542,-122.6444244
-242.9217224,-122.2295685
-246.9618378,-120.3755951
-249.2079468,-119.2001648
-252.3981171,-118.6701813
-253.9012146,-117.9932709
-255.4335175,-117.9760284
-256.6515808,-118.1683044
-255.1569214,-116.606369
-252.4562988,-115.4626465
-248.7433472,-114.3814392
-246.1619568,-114.0159149
-242.1069489,-113.8349762
-238.4988098,-114.3817291
-235.6720428,-116.8296051
-232.0172424,-120.2366486
-229.5462189,-123.6899567
-227.2181091,-129.7404175
-224.8500671,-135.0685577
-222.1844482,-141.0602264
-219.695343,-146.8774109
-218.4721375,-153.194809
-216.5586548,-159.3149719
-215.5129852,-165.6227264
-214.4489594,-172.1476746
-213.7000427,-177.9469452
-213.0092468,-183.2069397
-214.680069,-188.8123474
-218.2800293,-194.981842
-220.7212524,-199.9522705
-222.6826324,-204.054718
-222.0861969,-208.3652954
-221.204483,-212.6596069
-219.5418701,-215.5885315
-214.7875671,-218.544342
-214.1715698,-220.7831116
-212.3821716,-222.0119019
-211.6896667,-222.9620972
-212.2481842,-222.2577209
-211.844101,-221.7975464
-210.5079498,-220.4216309
-208.3315735,-218.6708374
-204.7123413,-216.6246033
-200.1001892,-214.2984924
-193.8952637,-212.0566101
-188.1971893,-209.7575989
-180.5969238,-206.9576416
-174.5881958,-203.5944824
-171.1176147,-199.6814575
-167.2450104,-195.4194489
-164.4169006,-190.6766052
-163.888382,-186.2405548
-165.0441589,-181.7938232
-164.4538879,-177.2942657
-161.7914429,-174.064209
-159.0135498,-170.7574463
-156.8713837,-167.7224731
-152.5649414,-165.333847
-148.7287598,-162.9812622
-146.0421906,-160.1591034
-143.700058,-155.6648865
-143.4779205,-150.9182434
-144.952301,-146.2232361
-149.3490448,-140.9440613
-152.1386414,-136.2509766
-154.3474274,-132.8896484
-156.3715057,-130.8179169
-156.0559387,-129.5202332
-155.6011963,-129.0772095
-154.5483093,-128.6672668
-153.4418488,-125.7807312
-151.3900909,-121.831604
-150.4554901,-116.9778748
-152.6194305,-110.0705719
-152.1619568,-103.428299
-152.9192963,-96.64320374
-153.7796631,-90.99531555
-155.4128418,-86.32575989
-157.4092712,-82.45252991
-157.282547,-78.44836426
-156.3417969,-73.38591003
-153.8640747,-68.00628662
-151.6234436,-62.31983948
-151.9434509,-55.38249207
-152.6617279,-48.00652313
-153.3590393,-40.2953949
-153.704895,-31.76465607
-154.0370789,-22.55383301
-153.0476532,-13.78900909
-152.4520264,-6.556251526
-148.5897675,-0.559001923
-144.8090973,4.697399139
-140.3739319,7.394649506
-134.881485,11.44407272
-126.7111969,14.76475716
-118.2436981,19.02671432
-107.716629,23.48758125
-97.80245972,29.26473808
-85.80560303,36.280159
-72.28286743,45.8114624
-58.17980957,56.73662949
-41.33951569,69.43077087
-23.06038666,83.24331665
-4.493797302,98.31562042
14.44197845,111.4577484
38.21157455,124.3461456
61.93399429,135.9060669
89.26711273,146.8884277
113.2940521,156.2067566
142.2073975,163.7552032
170.3287964,170.457016
201.3493652,175.0872498
233.530426,179.0554504
261.899231,183.6221008
291.7705688,187.0108337
326.7585144,190.2949829
365.4593506,193.1606903
424.7404175,196.3949432
498.1790771,199.6670685
573.7226563,202.9786224
645.5174561,208.0761719
699.0272827,212.5981293
736.1578979,216.8946075
722.1741943,221.7732391
681.4000244,224.5157166
649.1057129,228.1843109
638.3588867,231.9999847
612.0057373,235.3910828
548.4393311,239.226532
472.5206604,242.89328
397.5851746,247.6235199
336.3575439,251.6851501
320.8670044,255.8980255
294.1481934,260.9180298
287.9890747,265.7034912
281.6668701,271.1468201
290.1201172,276.3005981
295.4309692,280.8322144
302.864563,284.0162964
310.4523926,286.8972168
319.2731934,291.030365
326.6123657,295.833252
331.5728149,300.612793
336.3510132,306.4689941
341.704834,310.8993835
347.8110352,316.5947876
353.7036743,322.394104
359.7518311,328.1594849
367.7241211,333.2077026
376.0547485,338.3019409
383.845459,343.3125
389.9449158,348.8173523
396.7425842,352.7869568
402.0669556,357.8222656
406.9329224,361.6337891
411.140686,365.7855835
412.758606,370.0501709
413.7619019,373.0769043
410.2546692,374.9737854
408.8117981,376.6157227
404.8835144,378.1151123
400.8026733,379.683075
395.9141846,381.1070557
389.1079712,382.252533
381.3864746,382.9528809
374.6512451,383.5736389
371.7771301,383.6116333
366.6863708,383.407959
361.9442749,382.1875
359.9557495,380.7153625
358.65448,379.0385742
358.3064575,376.9022217
357.7684937,373.8253784
358.1818848,370.0795593
358.6907349,365.5054321
358.6090698,360.4155273
357.74646,354.0548706
355.7261963,347.3215942
352.1265564,340.2703552
348.2120056,332.504425
343.1617126,324.6942444
338.7009277,316.7041016
332.5189209,307.2783203
324.0126343,296.9643555
313.5974121,286.0995483
302.8105469,276.5308838
293.7833862,266.3358459
282.8995972,256.0460815
272.5858154,247.3025208
264.6416626,238.3058167
257.2633057,230.5905457
250.1327515,223.5516052
241.403244,218.3294525
234.421936,213.5239563
227.1436157,209.4924622
221.4125977,207.2090149
216.0912628,206.1613312
210.9898682,206.476532
205.4887848,207.5447235
202.6097412,210.4160614
200.2976379,214.2533264
200.7310944,218.5036316
202.3779602,222.374054
204.1985168,226.1126709
204.2052612,228.365509
202.704483,230.848175
201.625061,233.6478882
201.1356506,236.197403
201.7962646,239.2996826
201.7761841,241.6185455
205.5521393,244.6843109
208.2601471,245.8007507
210.4559631,248.7668152
214.5340576,248.3021851
218.5233307,248.1825867
221.9448547,245.8843842
223.684021,243.584259
225.1965179,244.3845215
227.75383,245.4589386
230.2114716,248.6983643
232.2499695,245.8157349
234.6876831,265.2760925
238.3201904,287.4625854
243.8475037,342.2249756
249.3833313,422.0509644
254.4273987,530.8200073
258.98526,662.6377563
266.3398743,819.5030518
272.2585449,980.532959
278.9663696,1128.686523
285.0022278,1250.007568
292.4595337,1333.067993
299.14151,1374.02771
308.2455444,1367.796997
317.81604,1312.204468
327.2718506,1208.8479
337.0918884,1053.631592
343.7304993,842.2199097
351.9390259,595.2912598
357.578064,348.0368652
362.5238953,135.8159943
367.3217773,-46.10678101
368.6499023,-156.8156128
367.9832764,-239.3428955
366.0595093,-261.6055603
360.2033691,-256.7527771
347.8995056,-202.9165649
335.227356,-159.3391418
321.6578369,-103.1841431
305.1948242,-55.08474731
285.9056396,-15.28982544
268.4574585,27.37223816
252.3047638,59.22268677
236.2529297,92.93585968
220.1141815,108.8838196
204.3004761,134.3178711
186.9159851,143.9644012
171.160553,161.962738
159.3948517,168.0976105
145.7510681,179.248291
132.9863281,188.6968689
121.8317871,195.5140228
111.9608994,200.4959869
104.3574066,204.6083984
96.88046265,207.0119629
89.25793457,209.5721741
82.41726685,211.6704712
76.0466156,214.2557983
71.39750671,217.0987244
66.0695343,218.1837006
59.68157959,219.6088715
54.05894852,219.9118958
48.52626038,219.1017151
42.90223694,217.9040985
38.55043793,216.6864319
33.13188934,215.3905334
27.03219414,213.0700989
18.59700394,210.0619812
10.60045242,206.7356262
3.903190613,203.6813812
-2.415500641,199.8799744
-8.365673065,195.8174438
-15.59272003,192.1176605
-21.71467209,189.9022522
-25.26954651,188.5704651
-30.15377426,188.7180481
-33.62247467,189.2740021
-37.62630081,189.1827087
-40.00705338,188.7301636
-42.9823761,187.9726563
-48.61973572,187.9979095
-52.40981293,188.2268219
-55.99964905,189.0708466
-59.61751556,189.319458
-62.8190155,190.2855835
-65.87145996,191.0962067
-67.15467834,191.645813
-70.98231506,192.2032318
-76.10865784,192.2793274
-80.91443634,192.2146912
-86.69480896,191.4243164
-95.23255157,189.6267853
-103.8991013,188.4793701
-112.9054489,186.5662384
-121.3519974,183.3182983
-130.6972961,179.0631409
-137.9127808,174.6394348
-144.3714294,169.9376068
-152.2834778,166.224823
-160.611084,162.6193848
-168.6120911,159.6222382
-178.7314301,156.9892883
-190.397995,155.6063538
-199.4871063,154.9094238
-206.847168,154.4396973
-213.3504181,155.0727997
-219.4329529,155.1485596
-224.1303558,155.4951477
-227.0541077,155.5110626
-230.7118988,155.34021
-233.1616211,155.4217834
-235.263916,153.8560181
-235.5206146,152.791748
-236.6955109,152.8750153
-236.9176788,152.3178558
-238.621521,151.6457062
-238.4358215,150.0205994
-237.8271332,147.8282471
-236.3139801,144.8634644
-233.1021729,140.4348755
-229.6958618,134.144165
-226.0068817,126.4989777
-224.0217133,118.5079193
-223.4702148,108.9711151
-222.3118439,97.86513519
-220.7691803,86.77529144
-219.7152405,75.34907532
-217.2293396,63.02165222
-214.1068115,51.45690155
-212.1968231,40.32497406
-209.4974976,29.18340302
-208.4768066,18.37355042
-205.608429,7.700294495
-203.481781,-2.029930115
-203.446106,-13.94337845
-205.025589,-25.17668915
-208.4870758,-38.02207184
-211.8942413,-51.64974594
-215.7410889,-64.99674988
-219.8994751,-78.38929749
-224.2531433,-91.73849487
-228.0844421,-103.3672867
-231.7568665,-114.2703629
-235.7556152,-123.9590302
-237.5619354,-133.9590454
-241.7392273,-143.2928009
-246.4748993,-154.4830627
-250.4374695,-164.6048737
-254.1236267,-173.9028168
-254.8752747,-183.3072052
-256.229187,-192.6393433
-257.7920532,-201.6863708
-259.1342468,-209.1842499
-258.9873657,-217.4756775
-258.6921387,-225.4350891
-259.6954346,-232.5989685
-261.9154968,-240.5776978
-263.4945374,-250.2154999
-266.1899109,-261.5722351
-268.7874451,-274.6483154
-269.5418701,-290.5307007
-269.8633118,-308.3200378
-271.0448608,-326.354126
-272.5983276,-345.4295654
-273.5970459,-364.4675903
-274.4530029,-381.9183655
-276.0100098,-399.9974976
-278.0841675,-416.5559082
-279.399292,-431.7857666
-280.9611206,-444.569458
-281.0775757,-456.5900879
-280.1508789,-466.736145
-278.7864075,-474.9276733
-278.4677734,-480.8282471
-277.7041931,-486.2680664
-275.9784546,-490.2711182
-273.4599304,-495.0560913
-269.7144775,-500.6091919
-266.0012817,-505.7079163
-260.8141785,-511.9048767
-256.0649719,-516.9177246
-249.8504181,-520.7067871
-245.6369171,-523.4383545
-241.7759552,-524.9178467
-237.9091492,-526.399292
-232.6748962,-526.5147705
-226.1517334,-527.9355469
-220.0424957,-529.616394
-214.15242,-532.2346802
-208.6752625,-536.0525513
-202.1940613,-541.5980225
-196.6745758,-547.7319946
-190.464386,-554.3262329
-185.7068329,-559.3491211
-181.6102295,-565.1482544
-177.3916321,-569.6816406
-172.7108612,-572.9229736
-168.4900818,-576.1347046
-164.5714874,-578.656311
-160.0161133,-581.0466919
-154.3732758,-583.9902344
-148.7796631,-587.6500854
-143.0392609,-591.3266602
-139.1549225,-594.5775146
-133.9518433,-597.9076538
-128.3930664,-600.0172119
-123.9388428,-601.1700439
-117.9944992,-601.1311646
-111.161438,-599.3135376
-105.4663391,-597.4655762
-99.35361481,-594.7609863
-91.86687469,-590.5561523
-85.74703217,-586.4641113
-79.95158386,-582.4329224
-73.27061462,-578.656189
-64.2346344,-574.5806885
-55.9189682,-570.0058594
-45.81280518,-566.0804443
-35.9217453,-562.7667847
-23.10639954,-560.0115967
-12.16953278,-557.1767578
-0.410995483,-555.3424683
11.30953979,-554.4957275
23.05012512,-553.1937866
36.53598022,-552.6912842
49.13119507,-553.3344727
61.41975403,-554.8328857
71.11978149,-556.4260864
82.55053711,-558.557373
90.46147156,-562.5666504
99.54310608,-566.9351807
110.0865021,-572.6973877
118.8946075,-579.8694458
131.6728516,-588.2614746
148.1146545,-597.4650879
169.2456665,-606.2172241
193.4953003,-613.9043579
223.0406189,-620.8937988
255.5444641,-627.3317871
286.4929504,-634.7553101
306.8452454,-640.3537598
315.6105652,-644.9332275
314.1773071,-647.4658813
305.3036499,-648.3390503
294.3330688,-649.0700684
283.6244202,-647.6003418
270.479126,-645.6538086
253.9541626,-641.4349365
236.1960754,-637.0631104
221.124176,-632.6439209
212.526947,-627.5513306
208.2528076,-623.0936279
212.4888916,-617.0830688
222.6086121,-609.6680298
234.6340332,-601.7853394
244.9085083,-594.7584229
245.8843689,-586.3841553
243.1819153,-578.9483032
238.3117065,-573.1217651
223.4465332,-568.9438477
200.7841187,-563.2886353
174.1689606,-559.9025269
148.0540924,-555.8110962
116.8477936,-549.9467773
85.39625549,-545.0323486
55.82543182,-539.0939331
31.0967865,-534.1646729
20.25006104,-524.7666626
20.99754333,-519.1864014
36.22027588,-500.7590332
58.83976746,-481.0519409
77.50744629,-438.6790161
88.61154175,-385.8790894
112.7100067,-306.4500427
171.8141785,-211.7332153
270.016449,-86.97247314
386.8273926,49.8145752
480.5098267,177.2530518
494.4665527,291.9168091
453.5419312,377.1140747
359.6560059,446.1237793
247.1457214,503.2285156
146.0623474,540.9221191
55.30268097,539.6949463
-4.230625153,486.847168
-59.9944458,378.9055786
-72.98661804,214.2460938
-93.89854431,-1.64263916
-89.49151611,-242.0967407
-98.73706055,-474.75354
-98.68755341,-664.3867798
-99.43153381,-828.9838257
-100.5781479,-897.2984009
-100.4415436,-962.9827881
-100.1770554,-947.9473877
-100.3512497,-952.708252
-102.8454971,-930.0147705
-105.9483414,-906.7055664
-114.4622726,-881.5111084
-121.2379074,-856.2749023
-128.8812866,-839.0615845
-135.3478241,-820.8120728
-140.8850708,-817.9689941
-146.1704559,-807.2355957
-150.7583618,-807.3299561
-154.0619049,-804.6801758
-159.6751556,-813.5955811
-166.387207,-817.1096802
-173.4124603,-824.9876709
-178.3433838,-832.0058594
-182.6002808,-840.5492554
-186.0912933,-847.885498
-190.2533417,-854.5485229
-194.8099365,-862.6512451
-199.6286163,-872.7601318
-207.7472992,-883.1599731
-218.1439819,-893.0853271
-227.8335419,-903.0862427
-237.0113831,-911.6865234
-246.4986572,-919.5662842
-255.0250549,-924.2944946
-260.7151184,-927.1623535
-265.2316895,-930.4891968
-267.7581787,-933.8112183
-267.841095,-937.5793457
-265.5247803,-940.3619385
-260.0930481,-942.269104
-253.094696,-945.1071167
-247.1654663,-945.7608643
-242.6573486,-947.0012817
-241.0895996,-947.8327637
-238.0836487,-948.7627563
-236.5994263,-949.2648926
-236.1105957,-948.7171631
-235.1107483,-946.7609863
-233.6377869,-944.7033691
-231.7377319,-940.5178223
-232.4856262,-937.2052002
-231.2814026,-932.8769531
-229.2957153,-929.8513184
-225.3188171,-926.9307861
-223.5339966,-923.6777344
-220.2713623,-920.3533936
-215.9887085,-917.4472656
-210.5384064,-914.5334473
-205.5371857,-909.4133301
-200.029953,-903.336853
-194.5958862,-896.8518066
-189.9134064,-891.2114258
-183.8177643,-885.9066772
-178.499588,-880.4212036
-173.5482941,-874.1262207
-168.5241699,-868.9321289
-163.1150055,-863.2663574
-159.8954926,-855.6971436
-157.768692,-848.7150879
-155.5140076,-840.8355713
-150.0917664,-830.7908936
-144.6386719,-820.0683594
-138.9630432,-809.4936523
-132.7106476,-797.4814453
-129.9847412,-785.3250122
-125.5879822,-773.4034424
-123.3794708,-761.4597168
-120.9211731,-749.8910522
-116.3235092,-737.5605469
-111.4094849,-724.5932617
-107.4403534,-711.5264893
-101.4918442,-698.9705811
-95.26316833,-686.3015137
-90.58383179,-673.1775513
-85.14860535,-660.4044189
-78.52285767,-648.9552002
-71.20936584,-637.9489746
-63.07310486,-628.8182373
-57.12511444,-621.4656982
-52.43721008,-615.3360596
-49.23661423,-609.5411377
-46.75241852,-604.8654175
-45.2558403,-601.5184937
-45.99746704,-598.0668335
-44.55919266,-594.5067139
-43.68823624,-591.3798828
-44.13785934,-587.932312
-45.54022217,-584.2515869
-46.8394165,-579.5731201
-48.5641861,-575.5599365
-49.67329025,-570.2659912
-52.02138519,-564.7067871
-56.29708862,-558.7279053
-60.52335739,-551.9675293
-64.8632431,-545.612915
-71.18048096,-539.385437
-78.50244904,-531.2854614
-84.27590179,-523.1251831
-88.72509003,-513.7910156
-91.91889954,-504.1290588
-93.69434357,-493.2891846
-96.30682373,-483.8575745
-98.59815979,-476.1433105
-102.1314392,-468.7619934
-104.6636581,-462.2615356
-106.0519485,-458.1046143
-108.1519547,-454.8061523
-107.3691711,-451.8093262
-105.2839279,-449.6881409
-103.4284134,-447.8932495
-97.64178467,-442.8796387
-91.40370178,-435.1114502
-82.05570984,-424.8267822
-73.93984985,-411.1289673
-64.29389191,-395.3360596
-56.10037231,-379.0979004
-46.93585968,-362.009613
-38.97164154,-344.5110474
-28.76714325,-328.1287231
-18.59410095,-314.2520142
-6.507659912,-300.440918
5.394073486,-289.3720703
18.69094849,-279.3484497
31.81900024,-268.5648804
42.49865723,-259.911499
52.86381531,-251.3493652
61.97558594,-242.0499878
72.07965088,-233.5108795
79.8430481,-225.651001
87.75950623,-218.9761658
93.19732666,-212.8151398
98.51400757,-207.0244446
104.5805664,-203.2835693
110.1016235,-197.9798737
116.6696777,-192.0964813
123.7657471,-184.7936707
128.4779358,-174.3909912
131.7698059,-160.86763
135.9160767,-143.8238831
137.2003784,-123.7176666
134.2055054,-100.3437042
126.7632751,-75.34819031
118.79245,-50.15297699
109.6904602,-21.59263611
97.35214233,3.31678009
84.90493774,27.70590973
74.22851563,51.27422333
66.4223938,74.45709229
58.40710449,100.011734
49.88082886,128.3744965
41.25398254,158.3828125
34.30940247,189.5476227
26.08920288,220.3469391
18.04090881,251.2539673
11.14480591,279.8234253
5.148788452,306.9666138
-2.57182312,332.1143799
-8.804931641,355.2661743
-16.56227112,376.6590576
-23.86088562,395.8443604
-32.52453613,412.7443542
-42.64254761,429.331665
-50.98706055,444.5760193
-57.00802612,459.8917236
-62.93870544,473.9102173
-69.55914307,485.9054871
-74.78933716,495.3462219
-79.44314575,502.5652466
-84.87287903,507.2651062
-90.80818176,509.2233887
-97.63322449,508.5866699
-103.3513947,505.9436951
-109.66716,501.3300781
-116.1741028,494.4579163
-123.2493744,487.3812866
-129.6345367,480.3991699
-134.4900513,475.5909424
-139.9026489,471.0048218
-146.6520081,468.069397
-155.0709381,465.3241882
-163.1230316,462.1266479
-174.9929504,459.8548279
-185.775177,455.4721375
-196.4009705,449.9134521
-208.8314209,444.0108032
-220.2512207,438.9395447
-230.5801086,433.3552856
-239.7902985,427.8899231
-250.5726929,424.618042
-258.9728394,421.1159668
-269.4307251,418.1698608
-281.747345,415.8208008
-293.592804,411.6364746
-304.8206177,407.0332642
-316.06604,401.763916
-328.3084106,396.0611572
-341.4073181,389.0811157
-351.5015259,381.3148804
-360.6222534,374.5253296
-370.0495911,367.2070313
-379.4582214,360.3981323
-389.1775818,356.0194397
-397.7947083,352.8147583
-406.8232117,350.9550171
-420.3571167,348.9480896
-433.9553223,347.4186707
-447.4179993,344.3495178
-462.4919434,341.2056274
-473.8963623,338.5052795
-484.2559204,335.5706787
-494.3834839,333.0488892
-502.3536377,331.486969
-509.8740845,329.3518982
-519.006958,328.8052979
-526.5379639,327.9071655
-532.2561646,329.532135
-539.6651611,328.3695984
-544.7355957,327.7362366
-548.2662354,325.2306824
-548.6586304,322.3114624
-548.9945679,315.4121704
-549.2773438,309.160553
-548.4924927,300.1730347
-549.3388062,291.1782227
-550.4638672,280.3748169
-552.9573975,269.6567383
-555.1235352,260.1525574
-556.2736816,249.7054443
-558.0402832,244.4819641
-558.8221436,234.7347412
-561.0748901,235.8721619
-564.2965698,234.1530609
-566.6085815,253.1280975
-570.6501465,276.2812195
-576.4974365,311.7519226
-582.0200195,351.9820251
-589.7826538,402.3614502
-597.0583496,467.4211731
-604.5239258,579.0240479
-611.9116211,718.0056152
-620.1859131,876.4599609
-627.2546997,1021.2052
-634.956543,1142.781006
-643.1304932,1248.934326
-648.7879028,1332.751465
-651.4296875,1370.568115
-652.2962036,1344.585571
-652.1398315,1252.13916
-654.7200317,1092.935547
-655.7255249,875.0827637
-658.9191284,619.4370728
-667.2032471,359.5790405
-680.0149536,125.0582733
-697.0980835,-41.21911621
-716.7409058,-157.1552124
-738.1558838,-161.5461121
-756.3964844,-159.3924255
-763.9768066,-98.57287598
-768.5389404,-51.2166748
-767.0136719,7.377471924
-758.43396,60.29034424
-742.3718262,106.4953156
-721.6890869,152.3928833
-700.5256348,174.3335571
-680.2764893,204.3746948
-661.6984253,218.1010437
-644.2041016,240.2575378
-630.1102295,248.6994934
-622.2212524,265.6989746
-621.5679321,277.7665405
-618.6817017,289.9036865
-619.1646118,297.0726318
-620.9554443,303.794342
-621.6885986,309.5099487
-622.5406494,312.4350891
-622.4910278,314.6242371
-622.7053223,317.7342224
-623.6098633,321.6003418
-629.4065552,326.0861816
-635.4226074,329.5587769
-649.6871338,331.8484497
-665.3709717,334.7435913
-686.668335,336.1784363
-708.2025757,338.9276123
-728.784668,342.0281067
-749.7047729,345.5477905
-764.6610107,348.680542
-780.1635132,349.9647522
-792.8088989,351.1903076
-803.7456665,352.7984009
-810.7712402,353.5169067
-813.6633301,356.4108887
-803.003479,358.1841431
-784.9945068,360.3389282
-763.4974365,362.3812561
-747.5995483,364.8494873
-737.5302734,368.4976501
-736.3303223,371.290863
-745.621582,376.8752136
-768.0046387,381.8427429
-809.4152222,387.2003174
-862.5980835,393.4085083
-906.3421631,401.1017151
-933.8616943,409.0635986
-939.1538086,417.9229431
-931.2592163,426.7467041
-924.7768555,436.6107483
-917.5773926,446.65979
-905.0880127,456.1914673
-875.4656372,467.0362549
-851.258728,477.7886658
-823.3115234,488.9454956
-797.921875,500.1210938
-774.6137695,511.8448181
-751.3186035,521.4094849
-732.56604,531.1841431
-713.3071289,538.8132935
-698.90802,543.1848145
-683.5402832,546.8677979
-672.2538452,550.1640625
-659.2919922,551.8526611
-647.4207764,552.3729858
-636.6370239,553.3691406
-628.0467529,550.0905762
-616.9488525,546.7351685
-606.2599487,541.9818115
-600.3336792,535.7480469
-591.9168091,525.8955078
-584.5927734,516.1184082
-576.0797119,506.4078979
-572.5438232,494.9862976
-569.5842285,482.5848389
-571.8965454,469.670105
-572.3427734,456.5311279
-576.0792236,443.2507935
-584.4509888,430.4488831
-581.5259399,417.8547363
-573.0159912,404.3149414
-544.3627319,391.9299927
-503.414917,380.5062866
-432.5485229,369.9731445
-348.1033936,361.3413086
-238.2586212,351.9617004
-143.0674744,342.8061218
-79.14868164,334.21521
-41.68954468,326.3520508
-23.23724365,319.3973694
-26.60385132,311.1416626
-59.55731201,305.3358765
-128.7886353,301.262085
-237.6346436,297.3534851
-375.6403198,292.9319458
-507.3736267,289.3229065
-595.293457,286.1908569
-658.7637939,283.0785217
-640.2495117,279.9045105
-629.8622437,277.0131531
-586.2896118,272.3675232
-560.133728,267.4050598
-533.7014771,261.6350098
-503.9766235,255.3618469
-494.7107239,247.4950104
-470.7698364,238.8112335
-464.712677,228.2051086
-452.6281738,216.0652161
-449.1256409,204.2333984
-439.7496033,192.0683899
-433.2926331,179.117981
-427.692688,166.0375824
-421.2218628,152.976181
-416.3698425,141.3017731
-410.1900024,130.8542175
-404.8985596,122.0545959
-398.7542725,114.2437592
-391.7071838,107.5845032
-383.1374207,101.8481064
-374.1977539,96.70446014
-366.4346924,90.93816376
-358.0405884,87.08489227
-347.8982544,84.53971863
-337.616394,82.2841568
-327.5248718,80.64555359
-316.5341797,79.41537476
-307.1696777,79.01941681
-297.9727783,78.3028717
-289.0345764,77.07139587
-280.7445374,75.41161346
-271.3785706,71.19065094
-260.8591919,65.44459534
-254.3529358,58.34116745
-246.3917999,49.26193237
-236.6548615,39.78804779
-225.1601715,30.43134308
-214.3094788,21.77050781
-203.2985229,12.37630463
-190.7135773,3.026000977
-178.9494934,-6.646240234
-168.3029785,-15.34308624
-158.4636078,-23.72271729
-148.1410828,-31.80258179
-135.7797852,-40.65220642
-124.5082092,-49.84954834
-114.235527,-57.98770142
-101.9235382,-65.10354614
-89.96955872,-72.04695129
-77.98519897,-79.00942993
-67.08885193,-85.99359131
-55.25461578,-93.23208618
-42.92871857,-99.97906494
-31.46636963,-105.1609192
-22.2855835,-110.0187378
-12.28263855,-114.5539093
-3.26953125,-117.1089478
3.787506104,-119.2823944
11.75172424,-122.0967255
19.1091156,-125.4490051
23.77746582,-128.9975586
29.04664612,-133.4625244
35.33908081,-137.9753571
41.30062866,-142.2333679
46.69056702,-145.7521362
52.88839722,-147.7933197
58.63938904,-149.2672272
65.95574188,-149.3973541
71.14820862,-148.9816284
77.78575134,-149.4860535
83.68740082,-150.6130981
86.47841644,-152.0838623
91.73587036,-153.614151
96.42031097,-155.4506836
102.7940216,-155.293396
108.8148956,-153.9517975
114.8076248,-152.6943665
121.526123,-150.1174011
128.1585693,-146.8516235
133.5314484,-143.035553
136.8682251,-140.0922546
140.1430969,-137.5580902
142.4122925,-134.8881073
145.0443115,-132.6570587
145.6300201,-130.1774445
145.2161407,-129.4059296
144.6001892,-130.8439789
144.6871948,-132.0592499
143.6931152,-133.7402802
141.4981689,-136.4235077
141.3638611,-139.3142395
141.7323303,-142.106842
140.7362671,-145.1763611
140.2241364,-147.9109192
140.4101105,-150.2813416
140.0950928,-153.4354553
140.0154877,-158.5335846
138.7266388,-163.5023804
136.8940582,-168.8747406
136.1441345,-174.1915588
134.9004974,-179.9353943
133.1537781,-185.3792572
132.1969604,-190.4758606
129.9949341,-194.2955322
128.8146515,-196.8074341
129.3694153,-198.5667572
127.2264328,-199.8280029
122.5353012,-199.3933563
119.2844696,-198.5846405
112.2686005,-197.916687
103.6635132,-198.7944183
96.41656494,-199.8295441
87.25106812,-201.6936188
77.71206665,-202.6704254
69.6557312,-202.7688293
61.37667847,-202.2304688
55.60957336,-203.2122192
52.01361084,-203.2046509
51.56494141,-201.4645081
51.71322632,-198.0686798
52.75592041,-193.4291534
52.33157349,-189.6148834
53.77789307,-186.4200439
56.11810303,-183.2151489
57.77755737,-179.7518463
60.93557739,-176.5477295
65.08242798,-171.6662598
66.79498291,-164.4588165
69.73770142,-157.4922333
74.91802979,-150.3641968
82.10601807,-142.4274292
89.39129639,-132.6281281
97.24819946,-124.5630493
106.7934875,-114.3268585
115.295166,-106.0081024
124.9223633,-98.799263
136.9740295,-90.55043793
150.5055237,-82.60288239
165.3522034,-72.78126526
182.8196564,-64.19499969
197.532196,-50.66544342
212.6261139,-39.5332756
226.5258179,-19.72322464
239.4947357,1.780715942
253.6813507,42.62675476
269.5440979,87.4606781
286.4681396,154.0301208
304.2401123,237.6562042
320.951416,342.616333
339.4499207,466.0058594
357.0311279,614.8668823
375.6058655,769.444519
392.4758911,907.4088745
407.9806213,1023.388794
423.5770874,1124.102539
440.265686,1209.763184
457.3370056,1262.166748
472.9080811,1254.915649
490.3266296,1163.145874
508.1349182,978.7790527
526.255127,708.0358887
543.8635254,384.1911621
561.1581421,65.41387939
577.8557739,-172.973999
593.0785522,-340.7998657
607.1994019,-413.1900635
620.5563354,-421.9853516
635.8676758,-364.2417603
650.2905273,-311.5898438
666.5460205,-253.3811035
683.375,-198.421463
699.1243286,-151.9638367
714.1792603,-104.7349548
729.2614746,-68.25646973
745.1537476,-28.95947266
757.829834,-0.396268845
772.380249,30.1847496
787.8291016,50.3956604
805.7235107,74.37422943
823.3317261,92.56143951
840.097168,110.8969116
855.9445801,118.4602814
869.3029785,131.8108826
881.0098877,142.5772705
889.1253052,150.5792542
895.4560547,152.0531921
897.0844727,154.5531158
896.6826172,156.1754761
900.0619507,156.6832886
903.727417,154.8580322
916.5966797,151.2522125
938.3764648,145.5624695
969.3236694,139.5826721
1005.943726,132.2152557
1037.089233,124.7522049
1050.065674,118.0410233
1037.904419,110.3406372
1003.077454,103.8601685
965.3735352,97.09332275
944.8948975,89.80265045
951.5637817,83.64312744
975.8353882,77.85038757
994.2476807,73.27720642
991.9147949,68.28079987
969.9946289,63.50878525
940.2230835,59.52216721
916.6851196,54.96922302
915.595459,50.61371231
937.4155273,47.47606277
970.7772217,45.14076233
997.6918945,43.14959717
1011.993408,40.53796005
1001.633972,38.39024353
984.6338501,35.829216
980.2524414,33.43130493
978.4541016,32.60458755
971.5657959,31.38428497
960.9232178,30.4882431
957.5304565,30.88505363
973.102417,32.8727951
1017.247437,34.23448944
1083.526489,34.7397995
1147.471924,36.07819366
1192.618164,36.66954803
1219.373779,37.46852875
1228.161133,39.92314911
1223.820557,43.59697723
1215.092896,49.12471771
1200.903809,55.77246094
1184.479126,62.34118271
1174.361572,68.22319031
1177.598877,73.83226013
1182.334473,80.62526703
1163.425537,86.47864532
1117.918091,92.95570374
1070.356445,99.43474579
1046.968506,105.7048187
1053.19873,113.1813278
1055.219482,121.4879913
1040.370361,130.0762787
1008.706726,140.0150604
972.807373,149.9367371
945.6079102,161.2518311
936.2794189,169.5344696
933.2443848,176.9176636
940.4205933,184.5332947
946.3533936,191.8071442
945.0283203,199.7368622
945.6605225,208.5492554
941.2267456,216.0286255
937.4165039,223.7527161
927.7626953,230.7531891
918.1235352,238.2786255
906.4205322,244.8712311
893.7719727,250.9097595
880.5821533,256.4470825
868.661377,259.5154419
855.8642578,260.9109497
842.3601074,261.3900452
831.9308472,260.7780457
820.5957031,259.4017334
810.9665527,257.6817932
801.3261108,255.7573547
793.9291992,252.4613342
784.8703613,250.1669159
777.2491455,246.9720612
770.6801147,241.2254639
768.9346313,234.2906952
764.8149414,227.5129547
760.59552,219.6133118
756.0736694,211.625061
750.9146729,202.3546448
748.2873535,193.2028809
746.3434448,181.5612183
743.2428589,168.5679932
739.9335938,156.061264
736.5345459,143.0694733
731.8685913,130.2654114
726.9083252,118.3274689
719.6490479,106.3189621
711.3231201,95.43626404
702.2824707,84.5476532
692.7030029,74.70066071
680.2348022,64.90169525
670.4799805,56.85301208
660.6728516,51.07933426
651.3134155,45.45832062
640.3861694,40.13033676
630.9622192,34.69012833
619.9875488,28.57278824
608.772583,23.61817169
599.0426025,19.89204979
590.4511108,18.14367676
581.9981079,16.6206131
574.5029907,15.99773788
566.9804077,15.7039299
561.0135498,16.23277664
557.2363281,17.12372971
552.6147461,18.28655243
547.8944702,18.33005524
542.2286377,17.82466888
537.3083496,15.69732666
533.7469482,13.12426758
527.4160767,9.139060974
522.7992554,3.540908813
516.8586426,-1.398445129
510.8457947,-5.918525696
504.5560303,-10.35566711
498.4475403,-14.09593201
491.3787231,-16.44503784
484.6173401,-18.34649658
478.0753174,-21.00205994
469.5511169,-22.978302
461.449585,-25.162117
451.645813,-27.13886261
443.2385559,-29.03659821
434.5223694,-31.26798248
425.2504272,-32.39186859
413.5636292,-33.82184601
402.7536926,-34.13253021
391.31427,-34.27970123
380.84375,-34.45394897
369.9695435,-33.50748444
360.2410889,-32.15904999
347.4398193,-31.15567017
333.4763794,-30.71871948
322.5674744,-30.34544373
312.3369141,-30.06349945
311.4718018,-29.21759796
313.1324768,-26.52571869
323.7150269,-25.1330719
340.6376648,-24.35979462
367.0737,-22.34848022
401.8595886,-19.59653473
444.3757324,-17.66020203
493.2715149,-15.35607529
543.4790039,-12.6064415
588.5591431,-9.288887024
626.7214355,-6.729728699
649.0432739,-3.550952911
655.3823242,-0.398544312
627.8148193,1.822879791
579.524231,4.3530159
500.1930542,6.79136467
427.0050049,8.069274902
370.8556519,9.448787689
317.2733765,10.22069168
290.3979797,11.18343544
250.4944916,11.10396004
228.3174438,11.93972206
204.8380432,12.04746437
198.7525024,10.36722183
186.3576355,8.467679977
181.7361145,6.330600739
174.7735901,2.882177353
166.6932678,-0.115242004
159.3084106,-3.086965561
149.7727661,-5.828943253
142.4576874,-9.440513611
131.9092102,-13.53283691
123.5563202,-18.07911682
113.6401901,-23.68318176
103.9125671,-29.77087402
92.92607117,-36.32907867
82.20745087,-44.47023773
70.74673462,-51.91967392
61.10441589,-59.21098709
51.67905045,-66.14202118
40.00305939,-73.2696991
27.93336487,-80.1290741
17.24053192,-87.01260376
6.71346283,-94.01302338
-2.695587158,-100.4457321
-11.53701019,-106.648613
-19.25179291,-113.323082
-26.70291138,-119.0535126
-35.09039307,-125.3451614
-42.95391083,-130.4103241
-49.92723846,-134.8042603
-55.92922974,-136.3226624
-62.47881317,-136.6087189
-68.24626923,-136.7887878
-75.24024963,-136.2819824
-81.65907288,-133.9267273
-88.45349121,-131.9849396
-95.98529816,-129.0241699
-102.9465714,-125.8722382
-110.7506409,-123.7301865
-118.2197342,-121.133728
-126.5638275,-117.2503204
-135.1816406,-113.262619
-144.9060974,-109.9826202
-154.4331665,-105.9970245
-163.260498,-102.5173645
-170.4494629,-101.6353073
-177.722702,-98.39739227
-186.2169342,-97.0331192
-194.1025696,-94.13436127
-200.8313141,-93.17512512
-208.0999298,-89.86793518
-212.9484863,-88.29275513
-216.5924377,-87.60227966
-220.1060638,-87.39512634
-221.4634552,-86.98306274
-224.8623505,-87.0841217
-228.5445404,-88.41703796
-231.1423492,-89.29084778
-233.2167969,-92.16030121
-235.5831604,-90.43424225
-239.1957397,-89.20326233
-242.860672,-81.67015076
-246.7966461,-76.30661011
-250.195282,-60.11247253
-252.5590515,-44.32740784
-255.4913483,-13.06233215
-257.0633545,24.50693512
-260.4789429,79.76760864
-263.1654053,159.3252258
-266.7468262,277.2711792
-270.4406433,426.2200317
-274.5154114,601.4251709
-278.3510132,773.8300171
-281.4315186,922.8590088
-281.8106689,1052.388428
-284.296875,1162.712402
-285.644165,1238.748657
-285.9029846,1248.29541
-285.7591248,1165.543823
-286.4768066,994.1536865
-285.6511841,758.206543
-283.3098755,482.8041382
-281.1917725,200.6480408
-278.8188171,-54.96937561
-276.5858154,-252.8798676
-275.0314026,-405.2644653
-273.9737549,-467.6972046
-273.6323853,-508.5740051
-273.4160156,-485.769928
-272.4153442,-471.1855469
-272.3221436,-432.5363464
-272.7614136,-397.3648987
-272.8919678,-357.7427063
-272.4518127,-320.8113708
-271.1193848,-289.7679443
-269.8553467,-260.3875122
-270.5526428,-245.8000336
-270.2297058,-225.3283997
-272.7835693,-215.0683289
-273.6103516,-196.5673981
-273.6422119,-187.4192047
-274.6498718,-172.0939484
-274.8976135,-164.7771606
-274.8996277,-155.2940979
-276.3239746,-148.8392487
-275.855835,-143.7158813
-278.1577148,-140.8388367
-278.1548157,-138.6940002
-279.1524353,-136.0244141
-282.7380676,-134.545105
-287.3485413,-133.971283
-292.9631958,-133.6293945
-300.1707764,-134.0371552
-309.2971191,-134.2709198
-319.7354126,-135.0647278
-330.2008667,-136.3746338
-341.2702942,-138.4701843
-351.0210876,-141.1035461
-362.0652466,-142.3941345
-371.371582,-143.2443237
-380.6481628,-144.8763733
-388.6977844,-146.0960083
-395.8754272,-147.1410217
-403.8641357,-148.0636597
-412.8165588,-149.2463226
-420.4108276,-149.7024994
-428.0377808,-152.1549072
-436.5328979,-154.9119415
-442.8875122,-157.3727112
-446.9573975,-159.8577423
-451.2409668,-161.8907318
-455.6661377,-162.4051666
-457.6518555,-163.6403809
-461.3399048,-164.6203461
-463.4881592,-166.4495239
-463.8276062,-168.2098541
-465.6956177,-170.6299896
-466.1157227,-172.4364929
-466.0636902,-174.361969
-467.1651306,-176.9465179
-469.4222717,-180.1095734
-471.0651855,-181.191803
-471.5368042,-182.238205
-471.6357117,-182.6657562
-470.3940735,-181.9264221
-468.9537354,-180.3484955
-465.2738647,-179.4635468
-461.9785156,-178.522049
-459.5407104,-176.2347717
-456.2498779,-174.0931244
-454.0158691,-172.2807007
-452.1328125,-168.180603
-452.2660522,-165.4535217
-452.2246704,-161.6489258
-452.4284668,-157.217865
-451.40625,-152.5904388
-450.0849609,-146.9779968
-447.8458252,-140.2467651
-445.708313,-131.9232788
-442.4757996,-123.076004
-439.0205383,-114.3890228
-438.2758179,-105.4460602
-437.3527527,-97.56204224
-437.5548401,-90.33256531
-437.5614014,-82.48025513
-436.6330566,-74.5870285
-434.818634,-68.58908081
-432.7191162,-63.09343719
-430.5898438,-57.53731537
-428.5285645,-52.28524017
-424.586731,-47.48731995
-420.1625366,-41.57919312
-415.9325256,-37.33805847
-410.0469666,-33.28805542
-404.8460388,-29.59789276
-402.2736206,-26.70279694
-399.5055542,-24.49014282
-395.5234985,-22.84235382
-390.5879517,-20.85139465
-386.9938354,-17.47867584
-382.6585083,-15.00357819
-378.4194031,-11.9565506
-375.1994019,-9.751197815
-371.4439697,-7.053398132
-367.8840027,-4.595283508
-361.6915283,0.485671997
-356.6060791,5.203971863
-351.5366516,9.223106384
-347.2459717,13.78958893
-343.1337891,18.00224304
-339.3918152,22.85816956
-336.4985962,29.41874695
-333.6401978,35.11276245
-331.3597412,39.97040558
-326.954834,43.95730972
-320.8862915,48.19417572
-316.5021667,51.35235214
-310.0612488,53.96624756
-306.0628052,55.68061829
-301.500061,57.40416336
-297.1266479,59.75640106
-293.6687012,64.00110626
-289.2050171,70.11979675
-286.2095642,77.13117218
-284.7600403,83.81832886
-282.6821899,91.85813141
-282.2169189,100.889679
-280.969696,109.1663437
-279.2869263,118.690239
-278.6257935,127.7229538
-279.0185242,136.729248
-279.2035217,146.4464111
-281.8598328,156.420105
-284.0489807,167.7517242
-287.1951904,178.1463776
-291.444458,188.689743
-293.5484924,199.6998749
-296.6578064,209.7742004
-300.440979,219.6929932
-303.8392639,229.3448944
-306.0328064,239.071228
-306.9032288,247.2633972
-307.4076538,254.3868713
-308.513031,259.7306519
-307.9960327,263.513031
-308.5769043,266.028595
-308.3615112,268.2029114
-310.0232544,269.1754456
-310.6001892,270.4596252
-310.8330688,271.5315552
-309.2572021,271.116333
-308.1809998,269.7053528
-305.7340698,269.5223694
-303.6889343,269.9169617
-300.588562,269.2301025
-297.2384949,268.3668823
-294.4100342,267.9197998
-290.1691895,266.2770996
-288.7183228,266.0298462
-285.945282,266.6847534
-281.1369629,267.3173218
-278.6873779,267.3986816
-274.6103516,267.131897
-269.8361206,266.4965515
-264.3782959,265.8083191
-259.6911926,265.7772217
-254.0423279,266.2339478
-250.597229,265.5596924
-246.2442322,265.847229
-239.9300079,267.0790405
-233.579361,268.4661255
-227.9856415,269.2470093
-220.2212677,270.0623169
-213.4309692,271.0663147
-206.370697,272.4036255
-198.8822632,274.1766357
-191.7355804,276.1693726
-183.5988159,276.5150146
-175.5645752,277.5088806
-167.0147095,278.2557983
-157.2613525,279.4397583
-146.5934296,281.913208
-136.6854095,285.0036316
-125.5047073,287.9042358
-116.3043289,291.1185303
-105.2078171,294.149292
-94.75896454,296.3922729
-84.67770386,296.6690063
-75.16501617,297.3334961
-66.58641052,298.5288086
-57.15530777,299.5370178
-47.36496353,300.9873962
-38.95329666,302.986969
-31.37879181,304.1844788
-24.72683716,305.1246643
-19.65868378,306.2928467
-14.73442078,307.9709473
-9.740890503,309.2786865
-5.771286011,312.570343
-2.318977356,316.1989136
1.469535828,319.1475525
4.96257782,320.4451904
8.140968323,322.0215454
9.820068359,324.4674377
12.38453674,326.9426575
13.97415161,330.1766052
15.62915039,333.8399658
16.4677124,336.4869385
17.50670624,338.7070923
18.76869583,341.0622559
18.9262085,344.1427307
19.97785568,347.142395
22.3338356,350.7155457
24.92847061,353.5872192
26.34955597,356.151001
28.4707489,358.744873
29.07383728,362.144043
30.47810364,363.8432007
31.36613083,366.1372681
32.96942139,368.2608948
33.38980484,370.2421265
34.37601471,372.2648315
35.53287125,374.8110962
36.69892502,377.2127075
38.46286392,378.9154053
39.45793152,380.1264648
40.77479553,380.6300354
40.97783661,379.9500122
39.27406693,380.1176147
36.64515686,380.1586914
34.3014679,380.0490112
33.03231049,378.6438599
30.70495987,376.4619446
30.06235123,374.1730042
28.88814163,371.605957
28.97269058,365.9753418
27.42652512,359.0983887
30.30006027,351.4057312
34.32821655,344.6948853
40.33771515,336.2158203
48.08070374,328.8849487
52.38233185,318.578064
53.40388489,307.9223938
56.58104706,297.8307495
62.87717056,287.911499
90.38103485,276.8636475
136.9124146,263.956604
223.3934784,253.1622009
318.0241089,241.193985
396.0921631,233.3796082
442.1089172,222.1255493
471.4728699,220.007843
499.213562,216.2230225
515.7194824,223.8362122
509.0079041,232.137207
471.1592712,249.1911774
395.0814209,268.0951538
288.2626648,294.7351074
170.104126,336.5697021
66.42550659,411.0080261
9.554267883,516.3104858
-30.74176025,657.5804443
-22.65930176,808.2481689
-19.73143005,952.6739502
0.528083801,1075.003052
14.24325562,1182.218384
26.11141968,1284.62915
40.86993408,1371.392822
51.49169922,1409.873901
65.13703918,1366.214355
73.54559326,1224.079102
82.15840912,995.5665894
86.74588776,709.9418335
92.53059387,407.4195251
99.50639343,141.7034454
106.8637085,-75.85281372
113.2239838,-192.3375549
121.1189117,-277.2373047
127.9216461,-265.6326294
135.9888306,-260.7068787
144.1016998,-206.2940674
151.4376221,-166.3358154
158.272995,-121.8714294
164.8096008,-76.1002655
171.9861145,-43.80012512
178.8303986,-3.316986084
186.6556854,18.7037735
195.0858307,48.84667206
202.2222137,59.72357178
210.3327637,80.27915192
215.9434204,89.70110321
222.2122955,102.2304535
228.2373505,104.1596832
233.1955872,113.182251
238.8215942,119.4748383
244.7984314,124.7644348
248.9951172,127.7961044
253.228775,130.8698425
258.061615,131.8066254
262.7346802,131.8186493
266.8749084,130.3699493
271.2264404,127.359993
275.4999695,122.7992401
278.782074,119.0283279
281.8464966,115.4864578
283.2312622,112.2263412
284.0358582,109.7586136
287.1420288,107.6312714
288.2554932,105.2520218
290.348053,103.3703232
293.1304932,101.2633743
293.6507874,100.0800018
294.7992554,97.6052475
295.8962402,96.92832947
296.3925476,95.26819611
297.0979004,92.55870819
297.1347656,89.85452271
297.9767151,86.65594482
298.8551636,83.01555634
300.7375183,79.47048187
303.438385,75.56777954
305.6138306,72.04176331
308.4195557,67.94412231
311.1545715,65.93389893
315.6235352,63.32623672
318.4231567,59.92648697
320.811615,57.63486481
324.2987671,54.51942825
328.800293,51.19241714
333.9852905,48.69126511
339.111084,46.07424927
345.1938171,44.31149292
351.7463379,41.56898117
357.828125,39.93919754
362.9915466,38.13008499
367.8876953,36.67011642
372.9848633,37.0136261
377.5267944,38.21051025
380.9324646,39.67406082
383.8043823,41.65073776
386.7636414,44.30214691
390.1429749,47.23550415
394.3315735,49.95790482
398.6199341,53.73805237
399.6875916,56.84148026
400.5779114,58.91954041
403.2246399,61.47063828
403.322113,62.9038887
402.5979614,63.65243912
399.9272461,64.09686279
398.8479919,64.61297607
397.2489319,65.48137665
396.3081665,65.81329346
395.6003418,66.87207031
392.598999,66.80478668
389.3452148,66.02859497
383.9501953,63.49436951
380.2584534,60.33284378
376.067749,56.66851425
373.3217163,52.18459702
368.916748,46.82112122
363.8631592,41.41365051
360.841217,34.34814453
358.7652283,27.31564713
356.5671692,20.30500603
353.7532349,13.30737114
350.3850403,7.259830475
350.0975647,2.103973389
348.5430603,-1.757266998
348.038208,-5.299110413
345.5381775,-8.773609161
344.401886,-12.47457123
343.3199158,-16.52772522
342.451416,-21.42259979
343.6306152,-25.36772156
343.3158264,-28.2776947
341.7857056,-30.51577759
341.4982605,-32.64046478
343.2694092,-34.72148895
344.7249451,-36.03730774
347.2995605,-36.73039246
350.3538818,-35.50653839
352.2892761,-35.08586121
357.1841431,-34.62182617
362.2476807,-35.40413284
367.5714111,-36.95876312
372.7112122,-40.5747757
378.6324158,-47.32357788
384.5357971,-55.2682724
391.6864319,-65.44418335
398.1989136,-74.28122711
406.2592773,-87.59186554
414.1981201,-101.2970657
423.4431763,-116.4320374
433.1006775,-128.0181427
442.4389038,-145.3479614
451.5881348,-163.2929688
462.212616,-182.9223633
474.5953369,-200.5236816
486.6741943,-224.0940857
497.03302,-248.1491089
506.7599487,-271.4696045
518.2698975,-295.3118896
529.1031494,-318.1108398
539.3509521,-338.6800537
547.9890137,-357.0490112
554.1973267,-371.8556824
567.5090942,-384.3817444
589.250061,-393.2053833
619.5439453,-398.8600159
651.1522217,-400.5058289
670.8863525,-397.9434509
684.0958252,-394.0904541
683.4431152,-387.9335022
672.8092651,-376.0571899
655.0405273,-369.5196533
634.7099609,-363.5805664
617.758667,-357.1359253
617.1688232,-350.7105103
633.7381592,-344.3837585
665.3710938,-336.9914551
700.012085,-328.5856628
715.3793335,-322.1716003
705.914917,-314.4308777
688.2153931,-305.1990356
682.5458374,-296.7516174
689.1729126,-288.6074524
701.3061523,-281.5959167
712.8201904,-274.531189
724.4866943,-269.8946533
727.4818115,-264.705658
721.6669922,-259.1083679
713.3748779,-254.260498
706.9161377,-248.6188507
702.0496826,-240.8380585
699.0955811,-232.2953339
690.0310669,-222.879303
660.3167114,-213.3618622
620.9534912,-203.2107849
599.6290283,-194.6400909
595.0377197,-186.7527771
587.1082153,-178.2206573
567.6241455,-171.4218445
555.8345947,-164.5570068
572.7225342,-156.7214966
595.4708252,-148.3852844
613.3916016,-138.9825439
612.8665771,-130.399765
579.3154297,-121.4661636
545.163269,-112.7557068
501.7302856,-103.4765167
462.0066833,-93.75785065
425.5794983,-84.8782959
391.7033997,-76.43949127
370.8939819,-68.2591095
344.2457886,-61.58971405
327.8472595,-55.38933563
307.1802063,-48.00493622
289.7937927,-39.58504486
271.1756287,-31.83930588
253.7131805,-23.49387741
237.4063568,-15.30716324
220.4324951,-7.259929657
205.5295563,1.634963989
189.7097778,11.50267792
176.2501373,20.83135986
161.3457489,29.40518188
144.8463745,36.65924072
127.5410919,43.91338348
108.8558578,50.51933289
89.84437561,56.96385193
71.5544281,63.92247009
53.72250366,69.76542664
37.25430298,75.78419495
20.77617455,82.19207764
5.28260231,87.8934021
-10.06833363,92.49661255
-25.0930748,96.40817261
-39.90836334,100.7314453
-53.54916763,103.2556458
-65.76600647,104.402298
-77.75909424,104.2566528
-91.09890747,103.4683838
-102.4985428,102.5263214
-113.785614,101.0470734
-126.1361465,99.18911743
-136.6422119,97.02441406
-146.2806091,94.71464539
-155.5882568,93.43171692
-162.2358398,91.73628235
-170.3955688,89.86608887
-179.2196198,88.686203
-186.3374634,86.02445984
-192.9516296,84.70680237
-201.0879822,83.64620972
-209.3491821,83.69857788
-217.6091309,83.52209473
-224.7463379,82.75976563
-234.2045898,82.59184265
-242.3473206,82.87748718
-249.4743347,84.31443787
-256.87146,86.87667847
-264.7755127,90.46594238
-274.5513916,94.85939026
-284.5615845,99.81692505
-294.4815369,105.591156
-305.0995178,111.2568359
-316.7036743,116.2871399
-326.651001,121.3474426
-336.1505127,127.3888245
-344.1625977,134.0338135
-350.5534363,140.9874573
-357.0884399,149.0001831
-362.8837585,157.8128052
-367.883728,168.1932678
-371.7713013,177.8833923
-377.1631775,186.9646301
-382.4935303,192.6856995
-388.5725098,199.0147095
-393.9714355,202.2338257
-398.3670044,205.1870117
-402.2987671,208.0581055
-405.103302,213.2666321
-407.965271,219.3721619
-409.1271667,222.9490662
-411.760437,236.2528381
-415.3332825,245.3453674
-416.7761536,282.2579651
-417.2932129,334.3760986
-417.9794006,424.105835
-418.9455566,537.7560425
-419.1528931,683.8338623
-418.9126587,834.458374
-419.2385864,967.7514648
-420.601532,1074.162109
-420.1331787,1158.640015
-418.5840454,1232.706299
-419.37854,1289.401367
-421.0620728,1295.572632
-423.6169128,1220.937988
-429.3422852,1068.220703
-435.2733459,855.7814941
-445.0088501,600.5344849
-454.5578918,328.6634827
-462.8851013,63.28460693
-473.5715332,-179.5583344
-485.722168,-364.5894165
-497.0307922,-505.0041504
-507.6295776,-566.6658936
-519.4509277,-603.3588257
-529.4907227,-591.9763184
-539.4315796,-587.6748047
-551.4230957,-570.0942383
-561.8689575,-554.6536255
-572.069397,-538.5245361
-577.6551514,-521.2984009
-583.253418,-513.1685181
-585.8909302,-503.5046997
-590.6832275,-504.6085205
-594.4986572,-501.307251
-599.3320923,-502.9606934
-608.5195313,-501.2504578
-617.0391846,-501.7978516
-638.7952881,-499.1762695
-662.2473145,-498.6078491
-700.7772827,-497.3859558
-743.2099609,-497.4109192
-774.9243164,-499.9772949
-792.9931641,-502.9423828
-794.5923462,-506.151947
-783.690918,-509.1965332
-762.5723877,-512.6002197
-742.1711426,-515.2874756
-727.579895,-517.2055664
-720.4764404,-519.0528564
-732.439209,-520.7067871
-768.8776855,-522.9006348
-828.6109009,-526.0189209
-898.6664429,-528.2632446
-957.8522949,-531.0587769
-989.277771,-534.708374
-994.2243652,-538.0528564
-977.6262207,-540.8577881
-932.0346069,-542.2412109
-858.0785522,-542.4927979
-770.5407104,-540.9034424
-691.560791,-539.7662964
-641.8852539,-540.1344604
-624.2954102,-540.1466064
-619.2403564,-540.3662109
-600.680481,-540.7202759
-556.0792236,-540.3560791
-491.1478271,-539.451355
-433.6753235,-537.7188721
-402.3220215,-535.2034912
-410.3809509,-530.6467896
-465.4885254,-525.4222412
-558.8394165,-519.9907227
-668.5488892,-514.1176758
-779.1077881,-509.0909729
-873.7062988,-504.6756287
-941.3134155,-499.9194336
-957.3760376,-495.4844971
-940.4317017,-491.2315063
-887.3899536,-486.608551
-814.635376,-481.6453857
-738.1312256,-477.2034302
-668.763916,-473.5001831
-635.6439209,-471.6588135
-618.9603882,-469.2015686
-630.6762695,-467.2529907
-664.953125,-466.4003296
-714.4074097,-467.3201904
-767.5623779,-468.8581543
-816.918457,-471.5940552
-853.2704468,-474.900238
-868.9238281,-479.080719
-861.6165161,-484.072998
-833.3341064,-489.3574524
-788.0637207,-495.1377563
-737.0161133,-500.9631958
-693.4232178,-507.1855469
-671.5463867,-513.0722656
-674.5248413,-519.0794067
-698.0800781,-524.6333008
-724.0363159,-529.6585083
-747.7331543,-534.2901001
-761.2949219,-539.0004883
-765.1206055,-543.5203857
-770.1584473,-548.1439209
-771.3566895,-552.4473877
-768.104126,-556.2342529
-756.7414551,-559.8377686
-742.4332886,-562.0628662
-719.9299316,-562.944458
-698.5132446,-562.1870117
-670.0444946,-559.4285889
-645.3704224,-556.3415527
-618.4595947,-552.2099609
-591.937439,-547.8201904
-568.9771729,-543.1070557
-545.1142578,-538.8026123
-524.881958,-535.491333
-503.7407532,-531.9907227
-487.474762,-528.7990723
-471.7441406,-526.0899658
-459.421936,-523.1558228
-446.2637939,-520.5717773
-434.3671875,-517.300415
-422.6297302,-514.1929932
-412.0134277,-510.8665161
-400.4466553,-508.0792542
-390.0715027,-505.4813538
-379.5681458,-504.6433411
-372.8170166,-505.6421204
-366.673645,-508.1262817
-360.8777466,-510.287323
-357.9927673,-515.2740479
-354.0065613,-521.0748901
-350.5239868,-527.1962891
-349.1395874,-534.3516235
-348.1094055,-542.7407227
-347.6506348,-551.2515259
-349.7447205,-557.5292969
-351.633728,-562.6113892
-351.7143555,-567.0537109
-352.3859558,-569.1448975
-353.4742432,-571.2269897
-352.8399048,-573.6106567
-352.0968018,-576.0559082
-349.9154358,-577.9689331
-346.1157532,-579.9281616
-340.2080383,-580.9383545
-331.8017578,-580.6394043
-323.9213562,-579.3631592
-312.7926636,-577.5878906
-300.7049866,-573.526062
-289.3533936,-569.0102539
-277.6912842,-563.7067261
-267.0680542,-557.199585
-257.7420044,-550.8105469
-248.1268616,-545.765564
-237.1628876,-542.093689
-227.0497131,-539.1146851
-216.033371,-537.0021362
-206.5462952,-535.6075439
-195.5200653,-533.2789307
-184.1247711,-531.569458
-174.022522,-529.4002686
-164.8384552,-525.9022217
-156.7276001,-521.3032227
-147.5552979,-516.9731445
-139.2377014,-513.2846069
-130.6372223,-509.324646
-121.9660187,-506.1643677
-114.4090805,-504.3556519
-107.4774475,-502.0421143
-100.241127,-500.4873047
-92.9730072,-498.9310608
-86.37194061,-497.0264893
-78.7460022,-495.2935791
-72.43637085,-493.8390808
-65.65736389,-491.73349
-59.37948227,-489.0417786
-54.68733597,-485.68573
-49.58677292,-482.1543884
-46.31599426,-477.6646423
-43.13822937,-473.9396667
-40.74259949,-470.8506775
-39.1514473,-467.75177
-37.41868973,-463.6890869
-39.28413391,-460.2179565
-42.16436386,-456.6410217
-43.59011841,-452.4410706
-46.63243484,-448.4550476
-49.16438293,-444.4667358
-51.9302063,-439.7902222
-54.47343445,-435.7666931
-56.12181091,-431.3437805
-59.24567413,-426.490448
-60.95097733,-422.3613892
-60.45066833,-418.4376526
-60.73029327,-415.2709656
-60.43488312,-411.6131592
-58.45517731,-409.5126038
-56.70121002,-407.4108276
-54.85063171,-405.2017517
-52.19745636,-403.7971191
-47.48706818,-403.0571289
-42.15612793,-402.9257507
-35.13986969,-402.5083923
-28.21869659,-402.3471375
-20.85766602,-402.9377747
-9.87789917,-403.219574
1.375965118,-403.4466248
13.53839493,-403.6998901
28.26468658,-404.0772095
42.43789673,-406.0440674
56.89515686,-408.5003967
71.93520355,-411.8291626
86.03181458,-415.9568481
102.724556,-420.8672791
119.3535156,-426.5467224
136.3697205,-432.4406433
152.147583,-438.3807068
168.1803131,-444.7597351
183.2548065,-451.4871521
199.6141205,-459.4781189
215.0661926,-467.2972717
229.5247498,-475.941803
244.4745178,-484.8865967
257.6968689,-494.8404541
270.5054932,-505.5684204
283.7530823,-516.9315186
297.5267639,-527.8400269
311.6646423,-539.2423096
325.4057007,-550.227356
340.7709045,-560.6898193
354.8034058,-570.6196289
367.2828369,-580.3049927
380.0995178,-590.4822998
392.7466431,-600.2946167
405.7298584,-610.5552368
417.9158936,-620.1337891
430.0386658,-628.6361694
440.5937195,-637.3001709
452.9935303,-644.9406128
464.8712769,-651.2692871
476.1827698,-657.8041992
485.1813965,-663.1304321
492.3374329,-667.083252
497.6489258,-669.9591064
502.2630005,-672.8867188
506.7442627,-674.7479248
509.2647095,-674.809082
510.0379028,-673.5361938
510.4390564,-672.2875977
511.4014282,-668.861084
510.4780273,-664.2641602
509.0281982,-660.116333
507.4690247,-656.440918
504.9497986,-652.7681274
500.6188965,-649.8134766
495.3372803,-648.1410522
491.2523499,-645.7539673
489.5932617,-645.3681641
487.8833618,-642.1051025
488.5840149,-643.0045776
490.4962158,-642.0567627
494.7818298,-643.80896
498.3780518,-647.0120239
503.0414429,-645.8406982
506.1861267,-646.1873169
512.6083374,-632.979126
519.5734863,-624.7354736
527.3259888,-579.2938232
535.2434082,-528.486084
544.8056641,-444.2294617
553.4081421,-334.8107605
561.512146,-205.8511047
570.0509033,-65.54632568
577.4482422,68.99835205
584.3936768,192.1677856
593.0396729,301.8751221
601.4075317,401.40271
609.6290894,491.6948242
614.2826538,558.0117798
616.1687012,572.6558838
616.9342041,518.0718384
614.6321411,395.4910278
612.4998779,213.7796631
611.0501099,-9.571472168
611.8048706,-245.7137451
615.4667969,-471.2929688
624.4561157,-661.4328003
635.3921509,-815.0311279
642.2453613,-881.3804932
649.147583,-934.8043213
651.3760986,-923.0577393
653.8330078,-906.3118286
649.1959839,-856.6584473
644.4846802,-817.1868286
636.5996094,-774.4710693
627.0946655,-729.9804077
615.9974976,-691.0531006
606.0282593,-648.1941528
593.3747559,-619.586792
579.7739258,-587.65625
563.5961914,-566.4088135
547.9783936,-543.4174194
532.3082886,-530.503418
517.0507202,-511.0775452
502.4941406,-495.9907227
488.4785767,-479.9813232
474.5613708,-468.5115356
462.7672119,-456.3545837
452.9746094,-445.8965454
443.2792969,-437.4973145
437.4283447,-431.1301575
432.0874939,-427.0459595
425.1370544,-423.770752
419.1764526,-420.0855103
414.9077759,-416.3908081
412.5519409,-410.9038696
411.8964539,-404.9004517
410.909729,-398.4966431
410.3748779,-391.7875366
410.0733643,-385.7244873
409.7244568,-380.4429932
410.8628845,-376.2888794
413.6591797,-371.9534302
414.5036621,-367.9812622
414.8544617,-365.4035645
416.6765747,-362.1989441
417.0766602,-358.5639648
416.1306763,-354.8181458
415.2433472,-350.8566895
414.098114,-346.1571655
412.0862427,-341.0656128
411.6326294,-337.2846069
409.7746582,-334.2114258
410.7107239,-331.03479
411.5063477,-330.4427185
415.8553772,-329.1373901
419.6471863,-328.5914917
428.2878723,-327.7915955
439.5414429,-327.1393433
451.940979,-326.2388306
464.4139709,-324.4202881
478.7500305,-322.9144287
493.4917603,-319.9054565
506.7218628,-314.8876953
517.7653198,-308.9945679
527.9712524,-303.0805664
531.9612427,-296.9503784
535.6687622,-290.6801147
536.4693604,-284.0429688
535.105835,-277.2904053
531.2072754,-269.0239868
526.5881348,-260.5517578
519.8461914,-252.0014038
510.5978394,-243.4914703
500.1530151,-236.0102844
490.2807617,-227.7476501
481.6988525,-219.9428101
472.9883423,-213.0140381
465.0461426,-205.7546539
456.4831543,-198.484024
448.4347534,-190.8239136
440.4892883,-184.2819824
431.5888672,-179.3266296
422.8017578,-175.4634094
415.192688,-173.1725922
405.6260681,-170.7287903
395.9046326,-168.9222717
384.1679993,-166.537735
370.2235413,-164.0590057
354.7839966,-162.5583954
340.6583862,-159.7224579
321.3176575,-155.7404785
303.1697998,-151.8512268
285.1072083,-147.389679
266.4433594,-143.2621765
245.5302582,-140.0108032
223.9288025,-135.6878052
203.9130707,-130.3240051
184.4776306,-124.3720779
165.2505646,-119.6048126
145.4728546,-111.7508545
128.5313568,-102.2923279
111.825737,-92.16841888
98.07867432,-80.48752594
82.67306519,-67.28514099
69.18798828,-52.6230545
57.67382813,-38.44632721
47.28529358,-21.42661095
34.58573914,-3.716880798
24.65736389,13.46098328
15.29197693,31.34801483
7.224761963,48.20606613
1.18888855,65.05818176
6.590744019,82.80644989
17.67826843,100.2025833
37.36010742,116.1084442
57.80587769,132.0723114
77.3483429,147.94104
95.03582764,163.1475372
126.1893921,176.0058289
168.7037048,188.4947968
228.8102722,199.0578918
311.291748,207.0163116
416.5868835,214.571167
522.7110596,220.5400238
591.2686768,224.4393463
599.0350342,227.7779236
541.2871094,231.4212952
430.9298096,234.5321655
282.2819214,235.6471558
111.4039688,237.140686
-57.71522522,236.299118
-181.1745605,234.4062805
-268.7236328,231.4769592
-292.1421814,226.9111938
-289.8734436,221.0380859
-239.3290405,215.3400879
-200.3540649,209.5108795
-162.5792542,205.1322479
-128.0966492,199.3590546
-115.427887,193.9275665
-92.48390198,187.1031189
-90.03117371,179.8695068
-77.56804657,170.5592346
-74.30697632,159.4333344
-70.40567017,147.609436
-69.34249878,136.649704
-66.21606445,126.7718506
-62.70296478,118.3688889
-58.18230438,111.2523346
-53.96831512,105.4123306
-50.67031097,99.80264282
-47.51411819,95.36592865
-45.44555664,91.50479126
-41.02595901,88.89434814
-35.223526,86.76312256
-31.5735302,85.59520721
-26.25327873,84.74980164
-19.76491928,84.03213501
-12.94482231,83.26544189
-7.15130043,85.02202606
-2.062782288,87.56990814
2.295742035,91.07953644
4.956314087,95.43753052
2.153427124,99.6003418
0.052829742,103.7637329
-5.154670715,107.6323853
-8.275871277,111.415329
-11.71397781,114.9213638
-14.6300621,119.5700989
-16.44253922,125.3800583
-18.92461395,131.5516968
-23.30918121,138.2666931
-29.09944153,144.980957
-34.76179504,150.6837158
-41.02471542,157.7430725
-50.57479858,165.3101044
-59.90654755,173.5180664
-69.34988403,182.2146454
-77.91694641,189.7714081
-84.72301483,198.5180969
-92.1342392,206.9114075
-99.10890961,215.5056763
-105.3777237,223.807373
-112.1392059,232.2761841
-118.5593414,241.13797
-125.5235138,250.957489
-131.7335663,261.0025024
-138.4222717,271.7128296
-144.9613953,281.9692078
-152.4528198,293.5956421
-158.9141235,305.2181396
-164.994339,316.927948
-169.9515839,328.2519531
-172.1579132,339.8279114
-173.4403534,350.6677856
-174.1821442,361.5149841
-175.569809,370.7659302
-176.6454468,380.7129517
-177.5092316,389.5471191
-180.8866119,398.7006836
-184.576004,407.1187439
-187.6389008,415.7019348
-191.8204346,423.3879395
-195.4984436,429.0678711
-199.5398407,433.583313
-203.2384338,436.888855
-206.1259613,439.1538696
-207.5018616,441.6640625
-209.5147858,443.4279175
-212.6063232,445.0896606
-216.6802826,446.7217102
-219.9188232,447.9569702
-224.9517059,448.3817749
-229.1782379,448.2144165
-232.5488434,448.4307861
-237.1624603,447.6983948
-241.8111725,445.9795532
-244.5206299,444.5009766
-247.9078369,442.1323242
-251.1446228,439.3581543
-253.1510162,436.5549316
-255.709137,433.6253662
-259.7443848,430.7854309
-264.2527161,427.083252
-269.6195679,422.712677
-274.8215332,417.8383179
-279.4800415,412.0780029
-285.6063232,405.1342773
-291.4729309,397.7588501
-299.0210266,388.9544678
-306.7554321,379.5172424
-312.9165344,368.7844849
-319.8963623,358.2227478
-327.9068604,348.2115173
-334.2556458,339.1723022
-340.6786194,330.9697571
-348.0327148,324.0645752
-354.8651733,318.3577576
-361.1326904,313.2105103
-368.8398438,309.7973022
-374.7869873,307.0097046
-382.468689,302.5891724
-387.5037842,300.60672
-392.8573303,297.854248
-396.664856,299.2205505
-402.9750671,300.5292053
-409.7890015,305.2354736
-416.1870728,307.846344
-422.8190918,317.1376953
-428.4822693,322.9223633
-435.7639465,338.510376
-441.9332275,352.357666
-448.7026367,379.3218994
-453.9850464,401.4338379
-459.9292603,444.2864685
-467.121582,488.824646
-475.3455811,559.43396
-485.8526001,639.536438
-496.6638184,730.0098267
-509.2539978,822.4303589
-521.3067627,916.331665
-533.0577393,1007.906494
-543.12146,1087.938965
-551.1002808,1166.998047
-556.4863892,1242.962891
-558.902771,1290.799316
-563.1350098,1284.641357
-566.7843018,1210.030518
-568.8519287,1074.920776
-569.0333862,889.9613647
-569.2644043,660.5505371
-566.6495972,414.1278076
-563.9077759,187.9797516
-558.6779175,33.1244812
-552.6506348,-92.48248291
-544.3578491,-152.9821167
-536.1521606,-178.7194214
-529.12854,-127.4724121
-521.6300659,-90.1491394
-516.5383301,-21.44140625
-512.4956055,34.24691772
-509.7073975,90.36471558
-505.5216064,144.1836243
-500.3253784,172.5635071
-495.5862427,210.829895
-489.9117432,222.2593231
-484.0177612,250.2312775
-479.403717,256.894043
-473.3201904,276.2181396
-467.7344971,286.4734192
-462.8278503,298.4788208
-458.7250977,302.2107544
-456.0426025,307.2160645
-453.1700134,309.7076721
-451.2753296,311.4473267
-449.3577576,311.768219
-447.4434509,313.4541626
-446.6737061,315.990387
-445.7088013,319.1497803
-444.7504883,323.3486328
-443.9679565,327.0036011
-443.2451782,330.3747559
-442.6531067,332.8274536
-443.6472778,334.475769
-446.7744141,335.5637207
-450.2466125,334.8286743
-454.0130615,334.5745544
-458.7099915,334.3529053
-463.6112061,334.6618652
-470.030304,335.3417969
-474.2921143,336.3598938
-478.7928467,337.2092896
-482.5634155,337.8908997
-486.4487305,337.2107544
-488.5963135,336.4613647
-490.8404846,334.1898499
-493.4707031,332.0788879
-497.5371704,330.7528992
-500.5609131,329.9645996
-503.6566772,330.4750366
-507.3759766,331.317688
-511.1072083,332.6464844
-512.7321167,334.7413635
-515.2891235,336.6126099
-518.3094482,340.5486145
-520.0873413,344.3674316
-522.2744141,349.1822205
-524.9158325,355.5378418
-527.0602417,361.5994568
-530.2282715,367.1694946
-532.5649414,373.6456299
-535.1810913,381.4493408
-537.7315063,389.8777161
-538.7329102,397.7205505
-540.2625122,406.739624
-541.2680664,415.54776
-540.8187866,423.4190674
-540.7791748,431.5892334
-536.2567139,439.7974243
-534.5588379,449.0039673
-530.6554565,458.5335083
-525.305481,467.8544922
-520.0768433,476.8374023
-514.2568359,483.741394
-507.3460693,490.2633057
-500.1077271,495.4438171
-489.9675293,498.6925659
-478.6104431,501.3046875
-466.2659912,502.7901001
-454.5077515,503.663208
-441.1250916,503.2484131
-429.3617249,501.8922424
-418.2857056,499.5093994
-408.2739868,496.1677246
-398.3214417,491.5082397
-389.6156006,486.5649719
-383.0365601,480.3977966
-376.6585083,474.0178223
-370.0764465,467.5146484
-369.648407,461.7869263
-367.6836853,455.9572144
-366.7463379,452.3913574
-366.7362061,449.087677
-368.3061829,446.0011902
-369.7401733,443.5792542
-374.2152405,442.2208252
-377.6391602,440.4870605
-381.2729187,438.7049561
-383.8227539,436.7200623
-389.8305664,435.8721619
-396.1341553,436.1821594
-404.1454468,439.3721313
-411.3996582,441.9732361
-418.5188293,444.2388
-425.9593811,447.5865479
-433.6480103,450.749176
-440.6481628,451.8751221
-447.6869202,452.415802
-453.8088379,451.6888428
-458.2973938,449.7504883
-464.1773682,445.4335632
-466.7827759,441.6936951
-472.0583496,435.2937317
-474.8389893,427.2860718
-477.1152954,418.9556274
-480.1025391,409.9243164
-483.5068359,398.8949585
-486.2487183,387.9205322
-487.0884399,375.317749
-486.1884155,361.5315552
-483.2169495,347.5812378
-480.2984009,334.4769592
-475.8966675,320.917572
-470.6635132,306.756958
-466.2786865,294.0665894
-462.3565674,282.4856873
-459.6172485,270.2206421
-455.4355164,259.0064087
-451.7682495,248.003418
-449.0846558,237.5401611
-446.0131836,227.7793732
-444.0521851,218.8763733
-441.2547607,209.3078003
-437.8273621,199.5184326
-434.7591858,189.7313995
-432.2322693,179.7366638
-430.2760315,168.8975983
-428.4423523,158.534729
-426.811676,147.9378052
-427.1190796,137.4957886
-428.7084961,126.4835358
-429.7566223,115.6460419
-431.2526855,104.7131577
-433.3261108,92.86071014
-434.1796265,81.66151428
-436.0037842,72.8201828
-437.1095581,63.42980957
-439.8253784,54.58082581
-442.1629639,46.21247864
-444.9495239,37.46008301
-448.109314,29.09049988
-451.8380737,21.40987396
-456.885376,13.53892517
-460.8097229,6.496643066
-465.4501953,1.518951416
-469.8500977,-1.141555786
-474.4342041,-2.933837891
-478.3215637,-3.594543457
-482.7428284,-4.504333496
-487.4632263,-4.244873047
-490.9434509,-3.443069458
-494.7163086,-1.523986816
-496.2125244,-0.38433075
-495.9376831,1.207923889
-493.0404663,3.831100464
-488.1099243,7.48248291
-482.9772644,12.83168793
-477.574707,20.00853729
-470.45578,27.92124939
-461.9631348,36.96601868
-452.0108643,47.5136795
-443.2962036,58.91893768
-431.3778381,71.20560455
-418.0206299,83.05902863
-403.5048828,93.79631042
-389.7579346,104.8290253
-373.2850037,115.3970032
-355.2625122,125.5582657
-335.4579468,134.7945404
-317.1002502,144.1029968
-293.4376831,153.0538177
-268.2203674,162.4214935
-237.5041504,170.3949127
-207.6564331,179.0562592
-165.4255524,186.0354004
-117.5363388,193.2592468
-58.11764526,199.2275696
2.395797729,204.3987427
60.03701782,207.6072388
111.022583,210.1973114
161.8655396,211.5465088
212.753479,211.651062
264.2868652,212.0073242
311.4837036,211.5323944
346.0444336,210.399353
358.5372925,208.4044952
342.7853394,205.8951721
286.1738281,202.8989868
232.285614,198.4745789
184.5057678,193.6499023
144.6919861,187.5562592
129.6456299,178.663559
101.0228271,168.9497223
97.83712769,156.4343414
80.70854187,143.4416962
83.84503174,130.6436768
76.31864929,116.2346344
73.04510498,102.7676849
71.23350525,85.45681
67.57629395,66.71166229
66.85865784,46.79708862
65.49032593,25.34204483
60.18759155,3.614883423
54.23974609,-20.66345978
48.73162842,-45.46469116
41.39647675,-69.86976624
33.4781189,-95.6783905
24.6813736,-120.3124084
15.37752533,-143.4902649
4.545059204,-164.0743103
-4.37682724,-183.4399414
-14.29552841,-200.9876709
-24.15943718,-215.8011475
-33.39733124,-228.8422546
-39.19274902,-240.9133911
-43.13658524,-250.4325256
-44.82368088,-257.2896423
-47.41102219,-262.2094421
-46.9997406,-264.9078979
-43.70674133,-264.4139099
-41.13523102,-260.1324768
-37.07809067,-254.4169617
-33.95313263,-248.0591125
-32.03339005,-240.2361145
-31.7546463,-233.2618103
-33.10182953,-225.4622498
-35.47489929,-217.3606567
-37.85488129,-210.1581421
-44.98516846,-202.8660583
-49.19802856,-192.4854126
-58.79092407,-183.1281738
-72.55050659,-173.4437714
-89.77073669,-163.3018494
-108.7851257,-153.4910736
-128.1756592,-147.5610046
-148.6411743,-142.1973267
-165.3855743,-138.0876923
-175.9459839,-136.4664307
-182.0650635,-134.843811
-187.8494873,-131.1290588
-186.2156982,-123.9465637
-180.398407,-117.3818359
-174.1527405,-105.0303955
-166.9465942,-101.0892792
-161.1895752,-66.3769989
-161.7451782,-17.53421021
-160.5101013,64.18218994
-160.6329651,157.9804688
-161.9086914,271.7801819
-161.3190613,392.1432495
-159.5997925,492.294342
-154.4391479,577.5943604
-147.1264954,651.1973877
-134.1932983,729.0732422
-124.3800659,810.1079102
-110.0099487,868.9334106
-95.19650269,872.1821289
-77.43963623,800.3088379
-60.70739746,642.0709229
-43.18585205,393.151062
-24.83280945,83.2555542
-8.890686035,-218.0890503
8.337158203,-454.1716309
20.83763123,-614.8279419
34.95201111,-708.9863892
48.50183105,-732.9124146
61.79469299,-720.7017822
73.26625061,-669.4518433
87.72021484,-601.1535645
101.8713226,-528.4786377
116.1087952,-457.0875244
129.2086182,-385.444397
142.4173279,-314.356842
154.8184052,-248.5757446
167.8923798,-183.3338928
184.4828339,-127.0789795
197.8455811,-68.85128784
210.7771912,-25.53704834
224.7759399,21.9600296
239.2340698,60.84986877
255.4809723,100.2226868
271.2236328,124.5903091
287.8861694,156.0405579
304.0418701,175.4471741
320.1793213,198.3136444
337.0886841,216.2514038
351.3667908,230.3841553
366.6777649,237.9783783
381.9419861,246.3268738
396.7891846,250.9651184
410.7790527,253.0134888
427.2077026,252.8239288
440.6196899,251.3069458
454.7412415,246.0325928
468.4211731,241.838562
482.0424805,235.9390106
496.3002319,230.3577271
509.5861816,225.2450562
522.989502,220.0475464
534.989502,216.54422
545.9906616,214.7371826
556.4830322,213.7814331
566.3481445,211.3759613
576.6188965,208.8431396
586.0922852,207.24646
595.3922729,205.0925903
604.5758667,203.6144409
613.4276123,203.3475037
623.5360107,203.0217285
632.2966309,204.707962
643.0373535,207.2141876
652.9269409,210.1029816
663.6862793,214.1134644
673.5640869,217.9715271
683.2836304,222.3499756
693.2340088,225.6231079
704.442688,228.9073486
713.5683594,233.4058228
723.0443115,237.2138824
733.1525879,242.7153778
742.7054443,249.8321838
751.0527954,257.5927734
760.6048584,267.3753357
769.3254395,279.4219971
775.6984253,291.0418091
783.1582031,301.5631104
789.973877,311.0718689
795.6364136,320.0454712
798.9951172,327.9298706
801.3439331,335.7201538
803.5671387,342.5749207
806.8840942,348.5914001
811.0097656,354.5326538
813.7016602,361.6809387
817.6899414,368.6089172
820.343689,375.44104
824.1906128,382.9108887
825.8734741,391.0700073
827.2241211,398.6239929
829.5402222,407.4536438
833.5821533,415.7775269
836.9327393,421.9560242
841.2071533,427.0784607
847.4902344,433.4891968
854.6710205,440.8949585
860.4776001,447.4394531
867.4994507,455.0901489
873.2624512,465.0266113
879.0597534,473.9556885
884.8583984,484.0888672
889.6021729,493.0042114
894.6446533,501.2172852
899.4813232,507.5033875
905.9118652,513.8608398
911.4561768,518.7584229
916.7896729,521.2735596
921.0571289,524.0129395
925.0801392,526.2481689
928.5675049,526.9285278
930.2550049,527.0143433
932.8822021,526.1254883
934.9040527,523.2144775
936.8511353,519.0701904
938.2984619,514.7128296
938.5030518,508.8226624
937.4213867,501.561615
937.3340454,493.5412598
935.8040771,484.733429
936.0673218,474.4375
937.4840698,464.9359131
937.8026733,455.053833
938.2164917,444.3383179
939.3904419,432.4325256
939.2921143,420.5502319
939.7553101,408.0400391
939.2658081,393.7071533
940.1084595,378.4976196
942.4725952,363.7201538
945.104248,348.7907715
947.1706543,335.3880005
948.6826172,323.2993164
951.7484741,313.456543
954.8442383,304.6916504
959.3861084,297.7383423
964.4088135,293.4867249
968.0053101,290.731781
974.3487549,286.5549622
979.7831421,283.3386536
986.3856812,280.2038574
993.4367676,279.0396729
999.9482422,278.4968262
1004.792847,279.4887085
1008.625854,281.9797058
1014.02356,285.2190247
1016.296753,290.401062
1017.192993,294.8108826
1016.35144,298.9303894
1015.355774,303.3685303
1013.120728,305.506958
1011.736633,306.4667358
1009.527466,306.4667358
1004.631104,305.9472351
1001.804565,303.8300171
998.6657715,301.2880249
995.1559448,297.3373413
990.4134521,292.1261902
986.2514038,285.6453247
982.6464233,279.8225098
979.7875366,267.9339294
976.8751831,255.4942932
972.828125,241.0898285
970.4951172,224.7691498
969.7757568,207.1516724
970.6567383,188.9440613
970.0483398,169.3461609
970.0474854,150.708725
969.5391846,126.7196426
970.6124268,100.9437485
970.0596924,72.11662292
969.3025513,43.64614868
969.5061035,12.31369019
969.8015747,-19.15670776
973.5281372,-49.62611389
977.4243164,-79.43624878
983.5184326,-107.0301819
988.2377319,-133.8880005
994.3036499,-159.7774353
999.6591797,-183.8081665
1007.897339,-207.6838379
1018.938843,-232.9745789
1029.85498,-252.9642639
1041.36499,-269.5907593
1052.12561,-282.2341309
1060.946045,-293.2948303
1070.656738,-301.5332031
1080.398804,-307.2176819
1089.008789,-309.9480286
1090.680786,-312.7608337
1088.421143,-308.9725342
1084.599854,-306.1813049
1071.088379,-292.9732971
1054.822021,-272.7048035
1042.184814,-246.0098877
1030.989258,-215.0299072
1031.130127,-179.9987183
1037.419312,-141.6792603
1039.551758,-103.3387756
1041.245117,-63.45161438
1021.52002,-25.67945862
987.3655396,10.07008362
954.8588867,42.41133881
941.3692627,69.974617
964.5703125,91.96815491
1012.84729,115.4672394
1063.75415,125.8021545
1097.300537,134.479599
1112.172241,128.1848907
1117.373535,113.8557358
1121.487793,93.10379791
1120.423096,62.88092041
1112.543701,34.43767548
1096.436768,3.005111694
1078.881104,-26.18260193
1067.459106,-50.81016541
1056.77417,-74.19026184
1038.382324,-87.59472656
1018.822937,-103.1954346
995.8215942,-114.9873962
974.9056396,-121.2694397
952.1746216,-122.4515076
927.2296143,-116.6333313
904.1236572,-105.4281158
880.6105347,-89.37129211
857.859314,-68.5561676
836.1850586,-43.02993774
813.3696289,-12.04585266
790.5645752,15.7183609
766.526001,45.9316864
745.357605,74.17868805
727.1861572,101.3590698
708.5639038,128.3787689
692.7377319,153.1415405
676.8366699,178.3388519
662.6812744,201.9501343
650.486084,224.707489
637.741333,244.9594116
627.7714844,261.6264038
619.8862305,275.2129822
612.7653809,285.0374756
606.8499756,291.1369019
600.3684082,294.2879944
594.4801025,299.5305786
587.8947754,298.2209473
578.8458252,295.5071106
568.2896729,292.107666
558.8728027,289.5013428
546.3842163,282.1373596
535.2054443,272.480011
517.9353638,261.7418823
501.211731,250.296524
478.9295044,236.8727264
455.7814636,223.391449
431.6821899,209.3642426
408.5447998,193.7660065
385.4869385,181.6721039
363.2454529,169.8621216
343.1180115,159.97229
324.6326294,147.7350616
325.1429138,142.5755615
360.4066162,135.9776917
413.338562,141.3215332
472.8912964,146.3831329
517.9343262,166.5019531
545.315979,193.0402222
558.9080811,239.3060913
563.7990723,297.6334534
564.5005493,389.1759644
558.1449585,499.5969849
539.1525879,641.8535156
498.3596802,795.6466675
432.7826538,944.3596191
340.2689514,1069.432129
252.9191437,1160.08667
196.2648315,1212.398926
139.4622498,1206.853027
106.897934,1118.787842
79.20994568,950.2392578
71.19552612,728.6931763
58.17318726,483.7518005
53.21012878,234.4364929
45.64924622,-11.97512817
39.70343018,-243.8635101
33.39451599,-439.7443237
28.65708923,-577.3300171
24.38604736,-680.0963745
20.15248108,-738.6661377
12.85925293,-759.1889648
5.846878052,-718.4661255
-2.672134399,-676.447876
-11.71626282,-608.7528687
-22.96281433,-549.0227051
-34.12115479,-490.5030212
-51.35237122,-431.5890198
-70.65432739,-389.6397705
-93.68496704,-341.4941101
-116.6483917,-306.9609985
-137.7719727,-271.0429077
-161.3590088,-252.9163055
-180.7075806,-226.3263245
-200.8540649,-214.4840088
-211.3111572,-194.3104858
-217.792511,-181.892334
-217.9742126,-166.4058838
-216.1851807,-155.8174744
-215.7799988,-142.4314575
-217.5942383,-129.9545746
-223.960144,-116.9523849
-234.0941162,-106.9475784
-248.2799072,-94.61381531
-264.6271667,-81.59625244
-282.7941284,-67.88207245
-301.9201965,-52.13009644
-315.0168762,-35.13708115
-317.2454224,-18.08657455
-323.1790466,0.075653076
-321.4257202,18.86164856
-318.9892578,41.38672638
-311.2644043,64.17132568
-304.45047,86.07518005
-295.6850891,107.1619873
-288.5232239,126.3617859
-281.657074,144.4700775
-273.2047729,161.1805573
-264.8532715,169.8004761
-257.7865601,178.97995
-251.5848389,185.8825989
-246.4891815,191.4777222
-246.1837006,194.3966675
-245.6468506,193.9639587
-246.7425537,191.5487671
-249.1046143,186.8312683
-252.4615936,181.9894714
-256.6914063,177.477417
-260.3301697,171.2262878
-263.0869141,166.3925781
-266.0836182,161.5601501
-269.6043091,156.1075134
-276.4888611,150.4142303
-283.9062195,144.4152374
-290.3227539,138.6561737
-297.1497803,132.5294189
-303.191864,127.1662292
-308.7541504,122.7862549
-312.7280273,117.6690826
-318.1517334,111.8298645
-320.563324,105.699173
-323.7080078,99.72642517
-327.1825256,93.00610352
-327.5444031,83.96923828
-330.4876099,74.3576355
-330.7822876,62.4186554
-331.0866699,50.13417053
-330.3877869,36.28149414
-327.7167969,20.92145538
-324.2523804,5.110855103
-320.4618835,-10.83955383
-317.795166,-27.27553558
-314.17276,-44.45965195
-310.1100769,-61.17594147
-307.7998962,-75.94740295
-305.3134155,-90.96962738
-303.6863708,-103.8573151
-301.6333923,-116.3708878
-299.5499268,-130.4178162
-297.8893738,-143.8364563
-295.7503052,-155.9368286
-293.4331665,-168.528595
-291.9761963,-181.7460327
-290.3789673,-194.4691772
-290.697876,-205.5182953
-293.3907471,-216.6187744
-294.5684814,-225.9156799
-298.0144348,-234.5187683
-300.6834106,-243.0791016
-302.5803528,-251.7059479
-304.5392761,-258.9966431
-306.1394958,-265.9362183
-309.0608826,-272.8296509
-312.6329651,-281.0029602
-317.1477661,-289.1679077
-320.2304382,-296.7403564
-323.6998291,-303.6964111
-330.2357483,-309.3841858
-337.3883667,-316.2608643
-344.2366333,-321.9588623
-352.0852966,-326.6798706
-358.9108276,-331.3189392
-366.6390991,-335.6982422
-374.4185486,-340.8580322
-382.2295227,-346.590332
-390.4942932,-353.5709839
-398.5175171,-361.0911865
-407.5198364,-369.2582397
-416.9407959,-379.0641785
-427.9559631,-389.4115906
-437.7662354,-400.3476563
-448.0306396,-411.6022034
-456.4994507,-422.5183105
-466.9561768,-434.9809265
-477.9250488,-446.6326294
-489.5621033,-457.4200134
-500.6680603,-466.5580139
-511.4679565,-474.8743896
-523.5380859,-482.2353516
-537.7087402,-488.2539673
-548.6427002,-492.6779785
-558.5599365,-496.8009949
-568.7460327,-500.1034851
-578.1903076,-502.4764404
-587.7601318,-502.9891663
-596.0703735,-503.39151
-602.600708,-501.908905
-609.494751,-498.9074097
-615.5893555,-495.4909058
-621.6392822,-491.1489868
-625.7067871,-484.2436218
-628.4946289,-476.8398132
-630.1346436,-468.6752014
-631.692749,-461.2561035
-631.7557373,-452.0088196
-631.973938,-441.7693481
-632.9285278,-426.5628967
-632.5634155,-413.2397156
-632.7370605,-400.2580566
-634.3822021,-385.5875549
-633.9415894,-370.7646484
-633.852356,-355.5807495
-633.1851807,-339.2929382
-631.645752,-323.5250244
-629.6118164,-306.750885
-628.6647339,-290.3713684
-627.2424927,-277.3363647
-625.9594727,-262.9289856
-624.1697388,-249.9224243
-623.4988403,-237.6746368
-622.4713135,-227.7190247
-621.041626,-220.4767151
-621.0397949,-214.699585
-617.8148193,-212.2129822
-614.0482178,-210.7079468
-611.0646362,-210.8200989
-607.8371582,-211.3701019
-603.4882202,-213.8276978
-601.2745972,-217.2831573
-600.2223511,-221.077774
-598.3156738,-224.9863892
-597.2610474,-228.455246
-596.0846558,-231.3547363
-594.9897461,-235.3691864
-594.5635986,-237.9230957
-594.4005737,-239.577652
-591.3619995,-239.9240417
-589.020813,-237.9430847
-587.3479004,-234.3193665
-586.703186,-228.8770142
-585.2630005,-221.9739838
-584.1765137,-212.1824799
-583.9961548,-200.0010681
-587.6699829,-186.7551422
-592.1037598,-171.5266113
-595.7628174,-153.6373901
-597.515625,-138.4613953
-600.0803223,-118.858017
-601.6276855,-98.06040192
-603.6902466,-76.75512695
-605.3200073,-55.42986298
-607.8024902,-33.64258575
-608.8231812,-13.3875351
-611.9335938,6.573143005
-614.3931885,25.28456879
-617.5048828,42.54782104
-622.0684814,57.11607361
-625.8632813,70.444664
-628.7286987,82.83161926
-630.5786133,92.97344971
-633.1502686,101.8146667
-637.0081177,110.6978455
-639.5618896,118.1936646
-642.0917969,123.2702484
-643.9174194,127.3497314
-643.9840088,130.6298828
-642.9468994,132.3943176
-641.347229,133.2828369
-638.2342529,133.1229553
-634.9605713,131.4954529
-630.8487549,129.903244
-624.5428467,129.3318939
-619.7801514,129.164978
-617.0126953,127.9318085
-614.24646,126.3544769
-611.645874,123.8546753
-610.8913574,120.6704712
-609.7694092,116.2121887
-609.7036743,112.3218689
-608.4922485,109.8185425
-607.5907593,106.7062836
-608.6322632,102.446846
-611.553772,97.50028229
-615.4101563,92.67443848
-619.0845947,89.19297791
-623.6765747,85.59379578
-627.0824585,81.02209473
-629.4870605,77.22229767
-632.5554199,74.56520081
-633.0116577,72.46264648
-632.3760986,70.33338928
-631.0872192,68.25941467
-625.6384277,66.47444916
-622.4719238,64.63735962
-618.3862305,66.20626068
-613.7116089,70.00379181
-607.6453247,71.74304199
-601.2072144,79.79417419
-593.8850708,90.38235474
-585.9783936,102.4856796
-578.3153076,114.9439926
-570.0844727,129.3113098
-561.8807373,142.9049377
-552.9301758,154.6139832
-543.4440308,167.7024078
-534.5838013,178.8055115
-527.7558594,193.3205414
-520.947998,202.9511719
-514.9113159,217.0025787
-509.6017151,222.8667297
-504.2423706,230.0100708
-498.0760803,234.9864655
-493.0664063,235.8772125
-485.8494263,242.2001953
-479.60672,246.4823456
-474.210083,268.6426392
-468.3088379,288.0045471
-464.9208984,340.7475586
-459.7169189,404.5015259
-455.9943237,516.0427246
-453.8668518,649.3803711
-452.1281433,803.2020264
-451.7344971,957.6162109
-449.5811157,1103.224121
-447.0612183,1230.245117
-443.8095398,1331.883667
-439.5568237,1409.488647
-436.5236511,1452.768555
-434.444458,1432.045776
-431.5552368,1327.113403
-428.2514038,1139.365967
-426.5118713,894.6149902
-424.606781,626.0305176
-422.7051086,361.1819763
-420.2146301,116.4298096
-420.2125244,-97.61581421
-420.0605164,-256.1781921
-420.2965698,-375.1428833
-421.4778442,-419.3406982
-422.4892578,-443.2297974
-422.5508728,-412.7547607
-423.4388428,-389.5262451
-422.8728333,-349.484314
-422.6070251,-315.2358093
-422.9095764,-283.6766968
-423.2454529,-252.6815491
-422.3513489,-233.7470703
-420.341217,-207.799408
-419.1298218,-190.7898865
-418.1763916,-167.9280396
-414.6706238,-148.3145752
-408.4647827,-126.6673584
-402.1148071,-104.9033203
-393.6843567,-84.5166626
-384.1420593,-63.97592163
-375.2582397,-44.50424194
-365.5488281,-24.03555298
-358.2913208,-3.627975464
-350.3843384,16.70269775
-341.5977783,38.56427002
-332.9870911,59.19720459
-324.33078,79.94400024
-315.0548706,99.93783569
-302.4442139,118.7926025
-290.9927368,135.5967407
-278.8285828,151.2272797
-268.1914673,165.6140137
-254.2447052,177.6634827
-241.1798248,187.8733063
-224.2925262,197.8591461
-207.8788757,206.1079865
-193.9638977,213.7651367
-175.9375458,221.938385
-165.7163696,229.092041
-158.2318878,235.1544189
-155.3625793,240.1656952
-156.8655701,243.4677429
-146.0442505,245.3435669
-127.5325928,246.9617004
-49.85818481,247.9041443
54.97076416,249.069809
169.5459595,249.7117157
241.8959961,251.4307098
245.4631653,252.8225098
190.1775513,254.9710693
111.881897,256.9723816
28.46716309,259.2764893
-59.33991241,261.3552856
-159.4970398,263.8180237
-265.5466919,266.0233154
-356.6347046,267.4158325
-416.2106934,268.519043
-402.9398499,271.2315063
-388.7064209,273.0281372
-345.9382019,274.3248901
-313.967865,274.7835999
-287.4251099,275.8344116
-262.4660645,276.5232544
-256.5241699,276.9248352
-241.7033691,279.0254822
-235.3985901,280.6647339
-224.6951294,282.6669312
-222.1138916,287.6427612
-216.9810181,293.3707581
-213.5560303,299.5080872
-209.9828644,306.5201111
-204.5735779,314.6191101
-200.3649139,321.9544983
-194.214035,330.6522522
-187.9122009,339.9616394
-181.7691345,349.2806091
-176.3856506,358.3933716
-171.6288757,367.5839844
-166.3141937,375.3638916
-159.9254761,383.3406982
-153.8622437,390.4911499
-148.745575,395.8861694
-143.1273804,399.360321
-134.7206879,401.1125488
-126.5578079,402.875
-118.9224014,402.7450867
-111.8116913,401.6864014
-104.9304504,400.9078979
-97.58959961,397.8643188
-91.27545166,393.9385986
-85.43244171,390.2214355
-79.06853485,386.5134583
-73.09011841,382.3610229
-66.40880585,378.8896484
-60.62065887,375.3865967
-54.63685608,371.5088501
-48.9694519,367.7595215
-43.7061615,365.1364441
-40.16825104,361.1655884
-35.23698425,357.5845337
-30.65242004,354.7118835
-24.47896576,351.8814697
-19.23740387,350.1352234
-15.09143829,349.2063599
-13.03787231,350.1116028
-10.85581207,351.6166382
-8.849945068,352.6608582
-8.312187195,354.5968018
-7.331497192,356.1841125
-6.036720276,357.6260376
-4.413024902,357.6954346
-3.274520874,356.6014709
-1.237442017,354.04953
-0.102088928,350.902771
0.986038208,348.6203003
1.62979126,346.1820374
1.87677002,343.2798462
1.887535095,343.03125
2.14352417,342.7418823
3.196411133,344.5872192
4.561248779,347.6638794
6.527076721,351.7957764
9.578323364,355.0888977
11.56893921,358.4055786
15.2713089,361.8475952
20.24880981,363.9847717
24.09863281,366.5258789
28.71148682,369.1381226
34.65267944,371.5177612
40.90167236,374.2318726
48.11598206,376.7262573
55.29925537,379.3227539
65.42776489,382.8405151
76.67030334,386.274231
87.10562134,389.418335
98.29899597,390.5098267
107.0437927,390.6105347
116.2351227,389.2416077
123.9915924,385.5640869
132.5455017,382.4456177
140.4134827,378.4210205
149.071991,374.9199829
157.6224823,371.6132202
167.3249207,368.8197937
183.8769836,366.3865356
203.9102173,364.4631958
224.2528381,362.6715698
240.1332703,360.6809692
251.2352905,358.6157837
255.5599976,357.9069214
250.7580872,355.8769226
230.8888855,354.2069092
209.6596375,352.7342529
180.12883,350.5678711
156.2428741,349.3867798
136.9133759,349.2619324
117.0519104,349.236908
100.9685669,348.7614136
81.21391296,348.8504639
71.61683655,349.1789246
58.33255005,348.666748
49.48543549,348.6799927
40.61044312,349.8066406
35.32685852,350.4925842
29.75449371,351.8669434
25.42448425,353.7822266
22.66368103,355.1196289
19.66184998,356.1151733
15.37945557,357.2375793
9.744773865,357.5557251
2.602859497,357.3859558
-3.949279785,357.1763306
-9.643867493,357.2048645
-14.75861359,356.0991821
-19.1205368,354.7423096
-21.27028656,353.9744263
-23.93782043,352.1028442
-25.58221436,350.0054321
-28.59782791,346.5925293
-32.09366226,341.7075806
-37.22901154,335.9204102
-44.07962036,329.3546753
-53.65872955,322.5917969
-60.74964905,314.5291138
-70.34695435,306.2022705
-80.50308228,298.1009521
-90.74869537,289.2379761
-103.4754868,279.4584351
-115.9940948,270.2871704
-127.0910492,260.7258301
-140.9696808,250.3929291
-156.75177,240.3692322
-171.0697021,229.389267
-187.2294922,217.7471619
-202.3768921,204.1863861
-217.687561,187.6228943
-231.1154633,169.4581604
-243.729599,151.8656921
-253.6766815,133.615509
-265.0281982,113.8109207
-273.8261108,92.79907227
-283.0848389,71.41921234
-290.1582031,50.37712479
-296.7936707,27.88186264
-301.4754028,5.993789673
-305.1333618,-15.57443237
-308.3664856,-36.77991867
-310.6707458,-56.24129486
-313.8278198,-74.31947327
-315.7496033,-90.98111725
-317.1299438,-107.8507156
-319.4136353,-123.40168
-320.4627075,-136.913208
-321.7313538,-150.1310425
-322.6549072,-160.306366
-322.2865906,-169.5108643
-321.0458374,-176.2188263
-318.7930908,-181.2483826
-316.961853,-185.022049
-315.6444092,-187.486496
-314.1976929,-189.6576996
-312.230896,-191.4168091
-309.9882202,-193.477005
-309.2240601,-196.1257324
-306.871582,-198.1105042
-305.7570801,-199.6927032
-303.240387,-199.1933289
-299.4936523,-197.1780243
-293.3754883,-195.3201752
-288.5602417,-192.3712158
-281.5142212,-191.558136
-273.5910339,-189.0202179
-266.0296631,-191.1274109
-255.0581665,-194.5221558
-246.7875061,-200.8861389
-237.44841,-207.9437561
-228.7637482,-217.008316
-218.937027,-224.357254
-207.2105408,-234.028244
-196.4565125,-241.8633118
-186.9732971,-254.0935211
-178.4070129,-268.3788452
-171.5459137,-283.300354
-167.6694641,-304.8518677
-163.5246429,-319.2158508
-159.691803,-333.7164307
-156.9222412,-333.546936
-153.1019287,-333.2923279
-150.3559875,-317.2015991
-149.5918427,-277.2638245
-148.2482605,-207.7974243
-145.7312927,-114.4747162
-144.7695923,17.41629028
-144.1821442,168.5517578
-144.0543671,331.5768433
-144.471817,480.6768188
-145.377594,604.7444458
-147.2311096,709.2215576
-150.2762451,809.0596924
-153.9614258,909.0421753
-156.2649231,987.6704102
-158.1920319,1001.815369
-159.5305939,923.4353638
-161.1318359,755.6795654
-163.050415,518.4771729
-164.6775665,242.0039368
-166.3328857,-35.85351563
-170.0412903,-273.9907837
-172.5119476,-472.4135132
-175.3157043,-592.3186035
-178.3816833,-690.4831543
-180.8231201,-707.7265015
-184.3834229,-726.4602051
-186.1349487,-693.9123535
-187.9465637,-677.5031738
-190.1264343,-645.7377319
-192.5751648,-620.083374
-194.399353,-595.0646973
-197.3790131,-566.9313965
-198.5827637,-553.1296387
-199.6181335,-533.1121826
-200.1891937,-522.8545532
-201.8491821,-510.5401611
-202.1807098,-508.7917786
-203.3279114,-501.8332825
-203.5554962,-499.6639099
-203.3300476,-495.7209778
-203.7973328,-495.671814
-204.409668,-494.8776855
-204.6754456,-494.3991089
-203.9089966,-494.4050293
-202.3399353,-495.0001221
-198.682312,-496.9609375
-195.3163147,-499.1389771
-191.90802,-502.7934875
-187.0638123,-506.4248047
-182.100647,-510.4102173
-177.9574738,-513.1236572
-172.5106354,-517.2890625
-166.541748,-521.7764282
-161.3463745,-526.1408691
-154.3930511,-531.8197632
-148.2179565,-537.8607178
-140.3395081,-543.7094727
-130.2328033,-549.8565674
-122.3001251,-554.6152344
-113.9174271,-558.7880859
-105.110405,-562.5457153
-96.37493896,-566.8613281
-88.1416626,-570.6572876
-80.89572906,-574.4963989
-75.68428802,-579.5457764
-71.25295258,-584.1398926
-66.33592224,-589.3983154
-61.18442154,-595.6348877
-55.48654556,-601.7966919
-51.25336838,-606.6015625
-47.78263474,-611.0440063
-42.22089386,-615.4099121
-38.53350067,-617.7096558
-36.3259201,-618.7254639
-33.64984131,-620.5366211
-34.07493973,-617.5309448
-35.89657974,-615.4211426
-37.45936584,-608.4555664
-41.09673309,-601.3410645
-44.80808258,-585.4822998
-48.38909531,-572.2323608
-49.66944885,-548.401001
-52.23403549,-524.3916626
-55.85302353,-490.7144165
-57.9207077,-452.7504883
-60.21251678,-411.1040955
-61.69826889,-367.4305725
-65.22480774,-323.8402405
-69.92784119,-281.0396118
-74.04929352,-241.1524963
-76.85835266,-206.2744293
-80.51870728,-179.6648407
-84.13249207,-160.1141815
-86.06233215,-150.3744202
-88.32917786,-150.4876404
-89.6895752,-159.0833435
-88.25590515,-176.3042145
-86.80280304,-199.7494812
-84.56091309,-232.37146
-81.9827652,-263.1660767
-78.85153198,-294.8874817
-75.2272644,-326.5075684
-72.65515137,-353.9989929
-70.14128113,-382.9777222
-67.56102753,-398.003479
-66.03251648,-420.6882324
-63.14220428,-441.5076599
-61.11438751,-459.1694336
-57.74357605,-467.8458252
-52.13918304,-478.9269104
-46.94735718,-485.6920166
-40.63796997,-490.102417
-35.64746857,-490.8240662
-32.77207947,-490.8322144
-31.59228516,-489.5679932
-30.84986115,-487.9850464
-29.04743958,-487.1772156
-24.47207642,-486.9317017
-19.66083527,-486.6639709
-12.28538513,-487.0614929
-12.36756134,-486.6989136
1.572563171,-487.7860107
19.61011505,-488.0966797
45.16521454,-488.5752563
70.97458649,-490.5516357
89.87831116,-494.1678162
109.313858,-498.5466003
141.0823669,-504.5995483
181.9838257,-511.3411255
227.7855225,-519.1891479
276.5537109,-526.6796875
343.2840576,-534.1079102
423.1784058,-540.0512085
502.9448547,-545.8379517
568.7855835,-550.6190796
599.5797119,-555.4415283
573.6634521,-560.8970947
513.1229248,-566.6002808
418.7994385,-570.4877319
314.5189209,-572.2164307
233.9714508,-572.753418
161.8145447,-571.7110596
137.9136353,-567.2835693
109.8978653,-560.3013916
116.3423767,-551.4431152
109.4670181,-541.8925171
115.1772308,-532.0712891
120.6861115,-522.5681763
129.0585327,-513.9633789
137.1444092,-506.2543335
141.1557159,-498.8172913
145.8961334,-492.553772
147.3079071,-485.2019043
150.1216736,-477.0352173
149.1149902,-469.2257996
148.3941193,-462.5633545
147.8970947,-456.7647095
147.4721832,-452.0462036
147.7494659,-448.8683777
147.1533203,-447.3220825
145.9165344,-445.9341431
145.8367767,-445.782959
145.0002747,-446.3202515
144.9994354,-446.9673767
145.9801331,-446.619812
149.0148926,-446.7406616
151.2492981,-446.6730347
