489.0333862
595.8010864
690.6186523
770.0892944
828.1619873
855.4759521
843.2169189
772.4269409
616.1154175
374.1008911
84.70536804
-202.5187073
-445.3460999
-592.6081543
-674.9441528
-667.743103
-650.4689941
-604.5742188
-548.8324585
-483.3312378
-427.9541931
-381.4684448
-335.2126465
-308.6841736
-277.6177063
-261.1136169
-246.4751892
-250.2503967
-245.8135681
-250.0288696
-252.8455505
-259.2285156
-268.6736755
-281.3682861
-296.0419312
-311.0183716
-326.0434875
-341.559082
-353.7969971
-364.3092041
-372.6553345
-378.855835
-384.0690918
-387.4047852
-389.5551147
-389.5297852
-387.5776978
-384.3985596
-379.0585327
-372.1967163
-364.2965088
-355.4994507
-347.053833
-339.0380859
-332.4017334
-325.4246216
-319.4625854
-310.8564453
-301.6907654
-291.9099426
-282.0526733
-271.7528687
-261.5986023
-253.1162415
-244.3686523
-234.4377747
-224.1191101
-213.7609863
-201.2121887
-187.7389221
-173.3630981
-157.5575562
-140.2259216
-122.4424133
-103.013031
-82.91848755
-62.28393555
-39.4642334
-14.4503479
10.80633545
35.82984924
61.45111084
87.55517578
113.1497498
137.5962219
160.7229919
180.5271912
198.4668121
213.2792358
224.5851746
232.6213226
239.0881348
244.3050842
248.9163818
255.0408173
261.7430115
267.3748169
274.7660828
282.5631104
293.9187317
302.9123535
312.0198669
322.3026733
335.3544312
350.787262
368.3067017
386.5922241
407.0071716
427.5331726
447.7903137
467.6096191
487.477417
506.526886
525.2091675
541.4204712
553.4696655
565.7219238
580.2655029
592.8562622
605.163208
616.9327393
629.0535889
639.7431641
650.0147095
658.2720947
668.1052246
678.0634155
689.0251465
700.784729
713.9938965
728.8791504
744.263855
761.3179932
779.6337891
794.8803711
811.1256104
823.6723633
835.0093994
845.7441406
856.5691528
866.9937744
876.5775146
888.8095703
901.732666
914.9887085
926.7818604
940.3597412
954.5645752
972.4660034
993.4627075
1016.729004
1039.988037
1062.717529
1083.778809
1099.731445
1112.404053
1121.514648
1126.184082
1126.46582
1121.512939
1113.124146
1101.477539
1088.870117
1076.316895
1065.225586
1054.376953
1044.330078
1037.86377
1029.777344
1023.070862
1018.772522
1014.444214
1011.463379
1006.098633
999.84729
992.2350464
983.0096436
973.296936
963.5328369
951.6173096
940.2971802
929.5599365
920.666748
911.0803223
902.2209473
893.5267334
884.9953003
878.050415
871.9368896
868.0172119
863.1722412
857.8988037
854.1591797
851.3017578
848.5955811
846.2355957
842.8203125
836.7567139
831.1999512
824.3830566
814.8071899
802.4492188
790.800293
777.8401489
764.7180176
751.3378296
737.6071777
723.4394531
709.9473267
696.1463013
681.586853
666.1352539
651.628479
635.8092041
620.1181641
604.8602905
590.1071167
578.2015991
567.0759888
558.3909912
553.1782227
549.0251465
547.1362915
543.7224121
539.3475342
536.020813
531.6528931
526.3839111
522.3445435
520.0333862
517.5777588
516.3440552
518.0158081
517.9063721
519.8748169
522.0852661
525.7349243
528.6812744
536.1573486
539.9793701
552.6604004
561.9269409
580.7410278
596.3674927
622.8862305
648.4381714
686.2474365
726.3164673
778.3353271
829.286499
901.9107666
989.2869873
1093.324219
1205.3396
1312.296753
1413.84082
1511.255127
1606.491089
1689.569092
1738.059326
1720.875732
1615.727783
1421.806396
1153.40332
852.0475464
567.4005127
319.3921204
97.72766113
-102.2174072
-270.4199829
-391.463501
-445.9180298
-480.4072876
-485.7006836
-482.0437317
-457.5433655
-437.9081421
-416.1719971
-396.6572266
-379.7742004
-358.3591919
-342.1439209
-325.8527832
-313.387146
-301.2433472
-293.0133667
-285.8104553
-280.8852844
-277.2543335
-273.7368774
-272.5619507
-275.6618347
-281.6128235
-288.1879578
-297.4230957
-307.7396851
-319.8552246
-332.5555725
-347.7492981
-363.0003052
-379.1876221
-396.1140442
-411.8186035
-427.5374451
-440.1635437
-450.9925537
-459.9250488
-468.3023071
-478.230072
-486.6142273
-493.5914001
-499.1860657
-502.7315674
-502.9936523
-501.7774353
-500.5704346
-500.4907227
-499.9810181
-499.9535522
-497.9482117
-492.0801697
-480.1957397
-467.0170593
-449.1730042
-428.9896545
-401.8864136
-377.3945313
-349.388916
-320.6308289
-286.411438
-252.7304382
-216.9716797
-177.8149719
-136.1089325
-94.23652649
-53.52494812
-13.68981934
23.63117218
60.50814056
96.00733185
130.3345337
163.1485443
194.3454895
224.4021912
252.941864
283.5262451
307.2835083
329.0896912
348.0865784
365.2839661
381.6790771
394.8455505
407.3776245
420.1448669
432.7321167
445.9294739
458.9572449
472.5034485
485.4036255
497.1675415
509.6029053
521.7366333
534.0979614
546.5064697
558.4023438
571.2111206
582.1179199
591.9378662
599.1889038
603.579895
606.3253174
606.2417603
602.5272827
592.7359009
582.9744263
571.4249268
556.0820313
538.8781738
518.8082275
492.8135986
469.3688354
443.4153442
415.7222595
386.0646362
357.7288818
331.7390137
306.2446289
282.4460754
259.9110718
237.376709
215.4755859
193.1659546
170.2240753
147.1748657
123.2721863
97.56712341
69.90505981
42.15611267
15.11091614
-12.58324432
-38.55570984
-63.38117981
-86.5376358
-108.4669495
-128.377182
-145.194931
-159.7367859
-171.4867706
-181.0962067
-189.3128967
-194.8993073
-199.1470947
-201.9015045
-203.6996613
-203.1127167
-200.0062561
-194.8594971
-187.4768982
-179.6994934
-171.5837097
-162.866806
-154.6384277
-144.1388397
-134.2679291
-124.9394913
-116.278244
-108.1141586
-101.5686874
-94.32563782
-88.57536316
-81.75406647
-74.42037964
-68.39555359
-63.6861496
-58.84843445
-54.90409088
-51.73226166
-47.62644958
-43.90167999
-39.7405014
-34.50928497
-30.02536011
-25.35497284
-21.15930939
-16.85136414
-12.9669342
-10.56791687
-7.240188599
-4.043586731
-2.051940918
0.384529114
2.240242004
3.907546997
4.104324341
4.097114563
3.472000122
1.985214233
0.615791321
-1.577163696
-4.503417969
-7.02456665
-9.649932861
-12.73251343
-16.62016296
-19.87301636
-23.78897095
-27.36274719
-30.83981323
-35.21313477
-39.70117188
-44.12268066
-48.05409241
-51.10449219
-53.4967041
-53.84716797
-52.92337036
-53.03936768
-52.09257507
-50.28318787
-49.0592804
-47.24154663
-45.43630981
-43.67947388
-41.95185852
-38.53118896
-33.80259705
-31.96430969
-28.54344177
-27.7348175
-28.54936218
-30.1519928
-31.85809326
-35.2766571
-37.91639709
-41.10704041
-44.63755798
-48.18768311
-53.70939636
-57.24526978
-64.97076416
-64.23638916
-68.71867371
-58.29049683
-49.85903931
-22.68545532
7.438591003
56.3319931
108.0258865
177.1156921
259.6494446
361.7329712
478.4950562
612.9517822
750.1253662
883.6624756
1018.712524
1162.901611
1302.398438
1395.30481
1411.458374
1340.257446
1178.713867
930.6685181
620.2963867
295.8240967
11.28845215
-218.8158569
-323.6134644
-388.762207
-337.8503723
-299.6080933
-216.552948
-149.9842224
-88.19161987
-23.241745
19.00611877
70.55948639
106.9906769
143.5671387
156.5610352
179.6583099
186.2223969
202.3756104
211.0248871
220.6721802
226.5498505
231.346344
237.0640259
241.1334229
245.4505615
248.5128174
252.0673065
256.6309814
261.298584
266.5066833
272.9408875
278.3480835
283.2390137
287.7462158
292.6777344
294.7022095
294.9255066
295.1071777
294.650116
292.7840881
291.5133057
289.7631226
287.5178223
283.6409302
279.1463013
273.6949463
267.1540222
260.9247742
254.235672
248.1370697
242.5902405
237.5175018
232.9476624
228.2554169
224.4609375
220.3348389
216.3152924
212.9438629
209.9136047
207.0909729
205.6840973
203.9561768
202.54245
201.6172943
201.0623169
200.4829254
199.00737
197.4723969
195.9561005
192.8825531
189.9884033
185.8234711
182.759201
179.6028137
177.1061096
176.0060577
174.3650513
175.3025665
177.4044342
180.5408325
184.6090851
188.430954
193.4665222
198.4399872
203.6368713
209.64328
215.6617737
223.1720276
230.6457214
238.1535339
246.2948608
253.2993317
262.2921143
266.0922852
267.0157166
265.390564
260.0322876
253.3834534
245.897522
237.3663177
229.6098938
222.1247406
215.6459961
209.5644226
204.8204041
201.5575562
197.3274078
194.499649
191.4860229
188.4785767
187.1012115
187.6105194
189.82341
194.1053467
199.1592712
204.2673035
206.6788635
209.1134186
207.0237427
207.412384
207.3904266
207.4871674
207.7153931
206.8163605
205.2090759
202.8517914
197.7959595
189.2554626
177.1762695
161.3433228
142.6011963
122.1646576
101.0103226
79.43406677
58.69168472
39.81618881
21.50483513
4.948314667
-9.364976883
-22.14500427
-33.60306549
-44.76397324
-55.57514191
-65.79709625
-74.61764526
-81.52574158
-87.45488739
-90.9504776
-93.49528503
-93.87037659
-92.14511871
-89.61999512
-87.81462097
-87.40565491
-88.12609863
-88.80639648
-91.63330078
-93.30892181
-93.38547516
-92.4388504
-91.30282593
-90.51325226
-89.2943573
-88.82511139
-88.73308563
-88.95146942
-91.5694809
-93.30451965
-93.78015137
-94.28277588
-94.21096802
-92.99023438
-91.23132324
-89.20045471
-86.63520813
-82.77294159
-80.37076569
-77.33346558
-73.73886108
-69.05387878
-63.70238113
-58.16719055
-53.28370285
-49.62211609
-45.73131943
-42.57624054
-41.4213562
-41.44748688
-41.23731613
-41.37399673
-41.51132965
-42.54187393
-45.47988892
-49.86844254
-55.14625549
-59.71453094
-64.99666595
-70.81544495
-77.45576477
-86.0006485
-95.95968628
-106.7377701
-117.8731079
-128.7477417
-139.4075012
-150.5219727
-162.068512
-172.9012604
-184.2720795
-195.2289124
-205.6936188
-215.758316
-224.7852173
-233.8310852
-242.184845
-249.1186371
-256.7371216
-261.0885925
-263.8999023
-266.0692749
-268.7307739
-271.6868591
-274.0664063
-275.6966248
-277.4049683
-279.0975647
-279.3475037
-279.6729126
-280.3064575
-281.1485596
-282.303772
-284.0306091
-285.3894958
-283.4065857
-284.0549927
-280.1670837
-279.6848755
-269.7789612
-265.2893066
-243.4510498
-223.6990814
-178.8519745
-123.2877502
-49.27368164
36.0206604
149.1846924
280.0428467
419.8201904
559.4016113
680.4482422
788.4970703
881.1395264
938.8991699
930.2342529
833.7779541
650.1031494
400.0371704
120.1109924
-144.0682373
-375.2538757
-526.6689453
-650.9442139
-682.8192139
-714.4681396
-682.1738892
-666.9058838
-634.5772095
-600.5870361
-568.3322754
-532.5388794
-505.097229
-476.4319153
-463.4610291
-443.6010132
-435.9325867
-420.934906
-410.3387756
-398.9338074
-390.1113586
-380.9723206
-373.2936096
-367.0673218
-360.3252869
-355.1418457
-350.1528931
-344.2736511
-336.1826477
-328.0584412
-319.5295105
-310.8736877
-301.6588745
-293.5266113
-285.9528198
-281.7159424
-278.3910522
-275.3209839
-273.5792847
-272.4537354
-271.3425903
-270.1516724
-270.0227966
-269.4040527
-269.3196716
-270.3768921
-272.1105042
-273.5005798
-274.5391846
-276.4985046
-277.6491089
-278.7325745
-278.5175476
-278.0889587
-275.7056274
-273.4792175
-272.1000366
-271.4081421
-271.2579651
-270.9892883
-270.5638428
-270.2846069
-269.5644836
-269.3838501
-267.4830322
-265.1626282
-262.7261353
-260.3118896
-258.3309326
-254.5907288
-249.9356384
-244.5024109
-238.7511292
-233.5187073
-227.7906189
-221.7953491
-216.6862793
-211.5844421
-206.5442505
-201.1990662
-195.9454041
-190.0805054
-183.3572693
-176.7723999
-170.6401367
-165.4863892
-161.271637
-157.0571289
-153.7809906
-150.6187439
-147.094223
-142.7434692
-136.6361847
-129.1027374
-118.976059
-106.9523621
-93.62010193
-79.79760742
-63.71798706
-45.52140808
-26.26587677
-4.361808777
19.82259369
45.13927841
70.26050568
100.4909363
132.3079376
166.7118835
200.3596497
238.0163116
272.9870605
310.6526794
349.1860352
387.6764832
424.8581543
464.4441833
503.1569824
539.8115845
577.8193359
613.6254883
647.3322144
678.8088379
707.2661743
731.8747559
750.7409668
766.2940063
775.4129639
779.2449951
778.7527466
776.2628174
770.9985962
763.6104736
755.5326538
745.085083
734.6124878
721.2415771
706.9182129
694.84552
685.8497314
676.5622559
667.7431641
660.5853882
654.4206543
647.3157959
640.4212036
633.3897705
625.5089111
616.2958984
606.3327637
597.0195923
585.5883789
572.7487793
561.0571289
549.4753418
539.3021851
529.4160156
517.9145508
506.9081421
494.4693604
482.0533447
470.4361572
459.6766663
450.6193237
441.2438965
433.3717651
426.6481018
420.3196411
414.7453003
409.8372803
404.5733032
398.7481995
393.5172119
388.3319397
383.2578125
379.2574463
377.4950562
375.8547974
374.8616028
372.8764648
370.3287048
366.3401794
362.5253906
358.3925781
352.8637695
347.4743958
343.7702026
340.2714844
336.8556519
332.279541
327.516449
323.4858704
319.5932007
315.5710754
310.6115112
305.1732178
299.4773254
293.7546387
288.1677551
282.4290161
277.094635
271.089325
265.4822998
260.1158447
252.6004639
243.8108215
234.7978821
224.8310242
213.8554688
200.8188477
189.1335907
177.9060669
165.4255066
153.27948
141.3000183
129.6542053
118.6523361
108.9910889
101.2110901
92.35484314
85.09380341
78.88157654
73.42358398
69.5169754
67.25055695
67.60527802
69.0640564
72.55230713
77.62121582
82.84850311
87.94412231
92.38111877
99.55852509
108.6013107
119.2306137
129.8606873
142.9621735
155.8638
171.1255188
184.5338898
200.8908081
216.191452
234.5304871
251.3945923
274.6880798
295.3167114
326.1592102
358.5230713
411.8953857
466.1642761
553.6026611
662.9981689
791.53125
932.5515137
1081.147949
1226.921631
1358.457397
1455.962524
1490.322876
1436.429321
1285.511719
1041.318604
730.1583252
399.6359863
107.6889954
-76.77886963
-213.4276428
-264.2760925
-305.479187
-279.8017273
-268.8373108
-236.4932251
-215.2301331
-193.9926453
-171.338501
-161.0185089
-142.5205231
-137.9938354
-126.8816986
-128.5104218
-123.6798248
-122.864624
-122.2153778
-122.5299988
-122.940567
-122.6444244
-122.2295685
-120.3755951
-119.2001648
-118.6701813
-117.9932709
-117.9760284
-118.1683044
-116.606369
-115.4626465
-114.3814392
-114.0159149
-113.8349762
-114.3817291
-116.8296051
-120.2366486
-123.6899567
-129.7404175
-135.0685577
-141.0602264
-146.8774109
-153.194809
-159.3149719
-165.6227264
-172.1476746
-177.9469452
-183.2069397
-188.8123474
-194.981842
-199.9522705
-204.054718
-208.3652954
-212.6596069
-215.5885315
-218.544342
-220.7831116
-222.0119019
-222.9620972
-222.2577209
-221.7975464
-220.4216309
-218.6708374
-216.6246033
-214.2984924
-212.0566101
-209.7575989
-206.9576416
-203.5944824
-199.6814575
-195.4194489
-190.6766052
-186.2405548
-181.7938232
-177.2942657
-174.064209
-170.7574463
-167.7224731
-165.333847
-162.9812622
-160.1591034
-155.6648865
-150.9182434
-146.2232361
-140.9440613
-136.2509766
-132.8896484
-130.8179169
-129.5202332
-129.0772095
-128.6672668
-125.7807312
-121.831604
-116.9778748
-110.0705719
-103.428299
-96.64320374
-90.99531555
-86.32575989
-82.45252991
-78.44836426
-73.38591003
-68.00628662
-62.31983948
-55.38249207
-48.00652313
-40.2953949
-31.76465607
-22.55383301
-13.78900909
-6.556251526
-0.559001923
4.697399139
7.394649506
11.44407272
14.76475716
19.02671432
23.48758125
29.26473808
36.280159
45.8114624
56.73662949
69.43077087
83.24331665
98.31562042
111.4577484
124.3461456
135.9060669
146.8884277
156.2067566
163.7552032
170.457016
175.0872498
179.0554504
183.6221008
187.0108337
190.2949829
193.1606903
196.3949432
199.6670685
202.9786224
208.0761719
212.5981293
216.8946075
221.7732391
224.5157166
228.1843109
231.9999847
235.3910828
239.226532
242.89328
247.6235199
251.6851501
255.8980255
260.9180298
265.7034912
271.1468201
276.3005981
280.8322144
284.0162964
286.8972168
291.030365
295.833252
300.612793
306.4689941
310.8993835
316.5947876
322.394104
328.1594849
333.2077026
338.3019409
343.3125
348.8173523
352.7869568
357.8222656
361.6337891
365.7855835
370.0501709
373.0769043
374.9737854
376.6157227
378.1151123
379.683075
381.1070557
382.252533
382.9528809
383.5736389
383.6116333
383.407959
382.1875
380.7153625
379.0385742
376.9022217
373.8253784
370.0795593
365.5054321
360.4155273
354.0548706
347.3215942
340.2703552
332.504425
324.6942444
316.7041016
307.2783203
296.9643555
286.0995483
276.5308838
266.3358459
256.0460815
247.3025208
238.3058167
230.5905457
223.5516052
218.3294525
213.5239563
209.4924622
207.2090149
206.1613312
206.476532
207.5447235
210.4160614
214.2533264
218.5036316
222.374054
226.1126709
228.365509
230.848175
233.6478882
236.197403
239.2996826
241.6185455
244.6843109
245.8007507
248.7668152
248.3021851
248.1825867
245.8843842
243.584259
244.3845215
245.4589386
248.6983643
245.8157349
265.2760925
287.4625854
342.2249756
422.0509644
530.8200073
662.6377563
819.5030518
980.532959
1128.686523
1250.007568
1333.067993
1374.02771
1367.796997
1312.204468
1208.8479
1053.631592
842.2199097
595.2912598
348.0368652
135.8159943
-46.10678101
-156.8156128
-239.3428955
-261.6055603
-256.7527771
-202.9165649
-159.3391418
-103.1841431
-55.08474731
-15.28982544
27.37223816
59.22268677
92.93585968
108.8838196
134.3178711
143.9644012
161.962738
168.0976105
179.248291
188.6968689
195.5140228
200.4959869
204.6083984
207.0119629
209.5721741
211.6704712
214.2557983
217.0987244
218.1837006
219.6088715
219.9118958
219.1017151
217.9040985
216.6864319
215.3905334
213.0700989
210.0619812
206.7356262
203.6813812
199.8799744
195.8174438
192.1176605
189.9022522
188.5704651
188.7180481
189.2740021
189.1827087
188.7301636
187.9726563
187.9979095
188.2268219
189.0708466
189.319458
190.2855835
191.0962067
191.645813
192.2032318
192.2793274
192.2146912
191.4243164
189.6267853
188.4793701
186.5662384
183.3182983
179.0631409
174.6394348
169.9376068
166.224823
162.6193848
159.6222382
156.9892883
155.6063538
154.9094238
154.4396973
155.0727997
155.1485596
155.4951477
155.5110626
155.34021
155.4217834
153.8560181
152.791748
152.8750153
152.3178558
151.6457062
150.0205994
147.8282471
144.8634644
140.4348755
134.144165
126.4989777
118.5079193
108.9711151
97.86513519
86.77529144
75.34907532
63.02165222
51.45690155
40.32497406
29.18340302
18.37355042
7.700294495
-2.029930115
-13.94337845
-25.17668915
-38.02207184
-51.64974594
-64.99674988
-78.38929749
-91.73849487
-103.3672867
-114.2703629
-123.9590302
-133.9590454
-143.2928009
-154.4830627
-164.6048737
-173.9028168
-183.3072052
-192.6393433
-201.6863708
-209.1842499
-217.4756775
-225.4350891
-232.5989685
-240.5776978
-250.2154999
-261.5722351
-274.6483154
-290.5307007
-308.3200378
-326.354126
-345.4295654
-364.4675903
-381.9183655
-399.9974976
-416.5559082
-431.7857666
-444.569458
-456.5900879
-466.736145
-474.9276733
-480.8282471
-486.2680664
-490.2711182
-495.0560913
-500.6091919
-505.7079163
-511.9048767
-516.9177246
-520.7067871
-523.4383545
-524.9178467
-526.399292
-526.5147705
-527.9355469
-529.616394
-532.2346802
-536.0525513
-541.5980225
-547.7319946
-554.3262329
-559.3491211
-565.1482544
-569.6816406
-572.9229736
-576.1347046
-578.656311
-581.0466919
-583.9902344
-587.6500854
-591.3266602
-594.5775146
-597.9076538
-600.0172119
-601.1700439
-601.1311646
-599.3135376
-597.4655762
-594.7609863
-590.5561523
-586.4641113
-582.4329224
-578.656189
-574.5806885
-570.0058594
-566.0804443
-562.7667847
-560.0115967
-557.1767578
-555.3424683
-554.4957275
-553.1937866
-552.6912842
-553.3344727
-554.8328857
-556.4260864
-558.557373
-562.5666504
-566.9351807
-572.6973877
-579.8694458
-588.2614746
-597.4650879
-606.2172241
-613.9043579
-620.8937988
-627.3317871
-634.7553101
-640.3537598
-644.9332275
-647.4658813
-648.3390503
-649.0700684
-647.6003418
-645.6538086
-641.4349365
-637.0631104
-632.6439209
-627.5513306
-623.0936279
-617.0830688
-609.6680298
-601.7853394
-594.7584229
-586.3841553
-578.9483032
-573.1217651
-568.9438477
-563.2886353
-559.9025269
-555.8110962
-549.9467773
-545.0323486
-539.0939331
-534.1646729
-524.7666626
-519.1864014
-500.7590332
-481.0519409
-438.6790161
-385.8790894
-306.4500427
-211.7332153
-86.97247314
49.8145752
177.2530518
291.9168091
377.1140747
446.1237793
503.2285156
540.9221191
539.6949463
486.847168
378.9055786
214.2460938
-1.64263916
-242.0967407
-474.75354
-664.3867798
-828.9838257
-897.2984009
-962.9827881
-947.9473877
-952.708252
-930.0147705
-906.7055664
-881.5111084
-856.2749023
-839.0615845
-820.8120728
-817.9689941
-807.2355957
-807.3299561
-804.6801758
-813.5955811
-817.1096802
-824.9876709
-832.0058594
-840.5492554
-847.885498
-854.5485229
-862.6512451
-872.7601318
-883.1599731
-893.0853271
-903.0862427
-911.6865234
-919.5662842
-924.2944946
-927.1623535
-930.4891968
-933.8112183
-937.5793457
-940.3619385
-942.269104
-945.1071167
-945.7608643
-947.0012817
-947.8327637
-948.7627563
-949.2648926
-948.7171631
-946.7609863
-944.7033691
-940.5178223
-937.2052002
-932.8769531
-929.8513184
-926.9307861
-923.6777344
-920.3533936
-917.4472656
-914.5334473
-909.4133301
-903.336853
-896.8518066
-891.2114258
-885.9066772
-880.4212036
-874.1262207
-868.9321289
-863.2663574
-855.6971436
-848.7150879
-840.8355713
-830.7908936
-820.0683594
-809.4936523
-797.4814453
-785.3250122
-773.4034424
-761.4597168
-749.8910522
-737.5605469
-724.5932617
-711.5264893
-698.9705811
-686.3015137
-673.1775513
-660.4044189
-648.9552002
-637.9489746
-628.8182373
-621.4656982
-615.3360596
-609.5411377
-604.8654175
-601.5184937
-598.0668335
-594.5067139
-591.3798828
-587.932312
-584.2515869
-579.5731201
-575.5599365
-570.2659912
-564.7067871
-558.7279053
-551.9675293
-545.612915
-539.385437
-531.2854614
-523.1251831
-513.7910156
-504.1290588
-493.2891846
-483.8575745
-476.1433105
-468.7619934
-462.2615356
-458.1046143
-454.8061523
-451.8093262
-449.6881409
-447.8932495
-442.8796387
-435.1114502
-424.8267822
-411.1289673
-395.3360596
-379.0979004
-362.009613
-344.5110474
-328.1287231
-314.2520142
-300.440918
-289.3720703
-279.3484497
-268.5648804
-259.911499
-251.3493652
-242.0499878
-233.5108795
-225.651001
-218.9761658
-212.8151398
-207.0244446
-203.2835693
-197.9798737
-192.0964813
-184.7936707
-174.3909912
-160.86763
-143.8238831
-123.7176666
-100.3437042
-75.34819031
-50.15297699
-21.59263611
3.31678009
27.70590973
51.27422333
74.45709229
100.011734
128.3744965
158.3828125
189.5476227
220.3469391
251.2539673
279.8234253
306.9666138
332.1143799
355.2661743
376.6590576
395.8443604
412.7443542
429.331665
444.5760193
459.8917236
473.9102173
485.9054871
495.3462219
502.5652466
507.2651062
509.2233887
508.5866699
505.9436951
501.3300781
494.4579163
487.3812866
480.3991699
475.5909424
471.0048218
468.069397
465.3241882
462.1266479
459.8548279
455.4721375
449.9134521
444.0108032
438.9395447
433.3552856
427.8899231
424.618042
421.1159668
418.1698608
415.8208008
411.6364746
407.0332642
401.763916
396.0611572
389.0811157
381.3148804
374.5253296
367.2070313
360.3981323
356.0194397
352.8147583
350.9550171
348.9480896
347.4186707
344.3495178
341.2056274
338.5052795
335.5706787
333.0488892
331.486969
329.3518982
328.8052979
327.9071655
329.532135
328.3695984
327.7362366
325.2306824
322.3114624
315.4121704
309.160553
300.1730347
291.1782227
280.3748169
269.6567383
260.1525574
249.7054443
244.4819641
234.7347412
235.8721619
234.1530609
253.1280975
276.2812195
311.7519226
351.9820251
402.3614502
467.4211731
579.0240479
718.0056152
876.4599609
1021.2052
1142.781006
1248.934326
1332.751465
1370.568115
1344.585571
1252.13916
1092.935547
875.0827637
619.4370728
359.5790405
125.0582733
-41.21911621
-157.1552124
-161.5461121
-159.3924255
-98.57287598
-51.2166748
7.377471924
60.29034424
106.4953156
152.3928833
174.3335571
204.3746948
218.1010437
240.2575378
248.6994934
265.6989746
277.7665405
289.9036865
297.0726318
303.794342
309.5099487
312.4350891
314.6242371
317.7342224
321.6003418
326.0861816
329.5587769
331.8484497
334.7435913
336.1784363
338.9276123
342.0281067
345.5477905
348.680542
349.9647522
351.1903076
352.7984009
353.5169067
356.4108887
358.1841431
360.3389282
362.3812561
364.8494873
368.4976501
371.290863
376.8752136
381.8427429
387.2003174
393.4085083
401.1017151
409.0635986
417.9229431
426.7467041
436.6107483
446.65979
456.1914673
467.0362549
477.7886658
488.9454956
500.1210938
511.8448181
521.4094849
531.1841431
538.8132935
543.1848145
546.8677979
550.1640625
551.8526611
552.3729858
553.3691406
550.0905762
546.7351685
541.9818115
535.7480469
525.8955078
516.1184082
506.4078979
494.9862976
482.5848389
469.670105
456.5311279
443.2507935
430.4488831
417.8547363
404.3149414
391.9299927
380.5062866
369.9731445
361.3413086
351.9617004
342.8061218
334.21521
326.3520508
319.3973694
311.1416626
305.3358765
301.262085
297.3534851
292.9319458
289.3229065
286.1908569
283.0785217
279.9045105
277.0131531
272.3675232
267.4050598
261.6350098
255.3618469
247.4950104
238.8112335
228.2051086
216.0652161
204.2333984
192.0683899
179.117981
166.0375824
152.976181
141.3017731
130.8542175
122.0545959
114.2437592
107.5845032
101.8481064
96.70446014
90.93816376
87.08489227
84.53971863
82.2841568
80.64555359
79.41537476
79.01941681
78.3028717
77.07139587
75.41161346
71.19065094
65.44459534
58.34116745
49.26193237
39.78804779
30.43134308
21.77050781
12.37630463
3.026000977
-6.646240234
-15.34308624
-23.72271729
-31.80258179
-40.65220642
-49.84954834
-57.98770142
-65.10354614
-72.04695129
-79.00942993
-85.99359131
-93.23208618
-99.97906494
-105.1609192
-110.0187378
-114.5539093
-117.1089478
-119.2823944
-122.0967255
-125.4490051
-128.9975586
-133.4625244
-137.9753571
-142.2333679
-145.7521362
-147.7933197
-149.2672272
-149.3973541
-148.9816284
-149.4860535
-150.6130981
-152.0838623
-153.614151
-155.4506836
-155.293396
-153.9517975
-152.6943665
-150.1174011
-146.8516235
-143.035553
-140.0922546
-137.5580902
-134.8881073
-132.6570587
-130.1774445
-129.4059296
-130.8439789
-132.0592499
-133.7402802
-136.4235077
-139.3142395
-142.106842
-145.1763611
-147.9109192
-150.2813416
-153.4354553
-158.5335846
-163.5023804
-168.8747406
-174.1915588
-179.9353943
-185.3792572
-190.4758606
-194.2955322
-196.8074341
-198.5667572
-199.8280029
-199.3933563
-198.5846405
-197.916687
-198.7944183
-199.8295441
-201.6936188
-202.6704254
-202.7688293
-202.2304688
-203.2122192
-203.2046509
-201.4645081
-198.0686798
-193.4291534
-189.6148834
-186.4200439
-183.2151489
-179.7518463
-176.5477295
-171.6662598
-164.4588165
-157.4922333
-150.3641968
-142.4274292
-132.6281281
-124.5630493
-114.3268585
-106.0081024
-98.799263
-90.55043793
-82.60288239
-72.78126526
-64.19499969
-50.66544342
-39.5332756
-19.72322464
1.780715942
42.62675476
87.4606781
154.0301208
237.6562042
342.616333
466.0058594
614.8668823
769.444519
907.4088745
1023.388794
1124.102539
1209.763184
1262.166748
1254.915649
1163.145874
978.7790527
708.0358887
384.1911621
65.41387939
-172.973999
-340.7998657
-413.1900635
-421.9853516
-364.2417603
-311.5898438
-253.3811035
-198.421463
-151.9638367
-104.7349548
-68.25646973
-28.95947266
-0.396268845
30.1847496
50.3956604
74.37422943
92.56143951
110.8969116
118.4602814
131.8108826
142.5772705
150.5792542
152.0531921
154.5531158
156.1754761
156.6832886
154.8580322
151.2522125
145.5624695
139.5826721
132.2152557
124.7522049
118.0410233
110.3406372
103.8601685
97.09332275
89.80265045
83.64312744
77.85038757
73.27720642
68.28079987
63.50878525
59.52216721
54.96922302
50.61371231
47.47606277
45.14076233
43.14959717
40.53796005
38.39024353
35.829216
33.43130493
32.60458755
31.38428497
30.4882431
30.88505363
32.8727951
34.23448944
34.7397995
36.07819366
36.66954803
37.46852875
39.92314911
43.59697723
49.12471771
55.77246094
62.34118271
68.22319031
73.83226013
80.62526703
86.47864532
92.95570374
99.43474579
105.7048187
113.1813278
121.4879913
130.0762787
140.0150604
149.9367371
161.2518311
169.5344696
176.9176636
184.5332947
191.8071442
199.7368622
208.5492554
216.0286255
223.7527161
230.7531891
238.2786255
244.8712311
250.9097595
256.4470825
259.5154419
260.9109497
261.3900452
260.7780457
259.4017334
257.6817932
255.7573547
252.4613342
250.1669159
246.9720612
241.2254639
234.2906952
227.5129547
219.6133118
211.625061
202.3546448
193.2028809
181.5612183
168.5679932
156.061264
143.0694733
130.2654114
118.3274689
106.3189621
95.43626404
84.5476532
74.70066071
64.90169525
56.85301208
51.07933426
45.45832062
40.13033676
34.69012833
28.57278824
23.61817169
19.89204979
18.14367676
16.6206131
15.99773788
15.7039299
16.23277664
17.12372971
18.28655243
18.33005524
17.82466888
15.69732666
13.12426758
9.139060974
3.540908813
-1.398445129
-5.918525696
-10.35566711
-14.09593201
-16.44503784
-18.34649658
-21.00205994
-22.978302
-25.162117
-27.13886261
-29.03659821
-31.26798248
-32.39186859
-33.82184601
-34.13253021
-34.27970123
-34.45394897
-33.50748444
-32.15904999
-31.15567017
-30.71871948
-30.34544373
-30.06349945
-29.21759796
-26.52571869
-25.1330719
-24.35979462
-22.34848022
-19.59653473
-17.66020203
-15.35607529
-12.6064415
-9.288887024
-6.729728699
-3.550952911
-0.398544312
1.822879791
4.3530159
6.79136467
8.069274902
9.448787689
10.22069168
11.18343544
11.10396004
11.93972206
12.04746437
10.36722183
8.467679977
6.330600739
2.882177353
-0.115242004
-3.086965561
-5.828943253
-9.440513611
-13.53283691
-18.07911682
-23.68318176
-29.77087402
-36.32907867
-44.47023773
-51.91967392
-59.21098709
-66.14202118
-73.2696991
-80.1290741
-87.01260376
-94.01302338
-100.4457321
-106.648613
-113.323082
-119.0535126
-125.3451614
-130.4103241
-134.8042603
-136.3226624
-136.6087189
-136.7887878
-136.2819824
-133.9267273
-131.9849396
-129.0241699
-125.8722382
-123.7301865
-121.133728
-117.2503204
-113.262619
-109.9826202
-105.9970245
-102.5173645
-101.6353073
-98.39739227
-97.0331192
-94.13436127
-93.17512512
-89.86793518
-88.29275513
-87.60227966
-87.39512634
-86.98306274
-87.0841217
-88.41703796
-89.29084778
-92.16030121
-90.43424225
-89.20326233
-81.67015076
-76.30661011
-60.11247253
-44.32740784
-13.06233215
24.50693512
79.76760864
159.3252258
277.2711792
426.2200317
601.4251709
773.8300171
922.8590088
1052.388428
1162.712402
1238.748657
1248.29541
1165.543823
994.1536865
758.206543
482.8041382
200.6480408
-54.96937561
-252.8798676
-405.2644653
-467.6972046
-508.5740051
-485.769928
-471.1855469
-432.5363464
-397.3648987
-357.7427063
-320.8113708
-289.7679443
-260.3875122
-245.8000336
-225.3283997
-215.0683289
-196.5673981
-187.4192047
-172.0939484
-164.7771606
-155.2940979
-148.8392487
-143.7158813
-140.8388367
-138.6940002
-136.0244141
-134.545105
-133.971283
-133.6293945
-134.0371552
-134.2709198
-135.0647278
-136.3746338
-138.4701843
-141.1035461
-142.3941345
-143.2443237
-144.8763733
-146.0960083
-147.1410217
-148.0636597
-149.2463226
-149.7024994
-152.1549072
-154.9119415
-157.3727112
-159.8577423
-161.8907318
-162.4051666
-163.6403809
-164.6203461
-166.4495239
-168.2098541
-170.6299896
-172.4364929
-174.361969
-176.9465179
-180.1095734
-181.191803
-182.238205
-182.6657562
-181.9264221
-180.3484955
-179.4635468
-178.522049
-176.2347717
-174.0931244
-172.2807007
-168.180603
-165.4535217
-161.6489258
-157.217865
-152.5904388
-146.9779968
-140.2467651
-131.9232788
-123.076004
-114.3890228
-105.4460602
-97.56204224
-90.33256531
-82.48025513
-74.5870285
-68.58908081
-63.09343719
-57.53731537
-52.28524017
-47.48731995
-41.57919312
-37.33805847
-33.28805542
-29.59789276
-26.70279694
-24.49014282
-22.84235382
-20.85139465
-17.47867584
-15.00357819
-11.9565506
-9.751197815
-7.053398132
-4.595283508
0.485671997
5.203971863
9.223106384
13.78958893
18.00224304
22.85816956
29.41874695
35.11276245
39.97040558
43.95730972
48.19417572
51.35235214
53.96624756
55.68061829
57.40416336
59.75640106
64.00110626
70.11979675
77.13117218
83.81832886
91.85813141
100.889679
109.1663437
118.690239
127.7229538
136.729248
146.4464111
156.420105
167.7517242
178.1463776
188.689743
199.6998749
209.7742004
219.6929932
229.3448944
239.071228
247.2633972
254.3868713
259.7306519
263.513031
266.028595
268.2029114
269.1754456
270.4596252
271.5315552
271.116333
269.7053528
269.5223694
269.9169617
269.2301025
268.3668823
267.9197998
266.2770996
266.0298462
266.6847534
267.3173218
267.3986816
267.131897
266.4965515
265.8083191
265.7772217
266.2339478
265.5596924
265.847229
267.0790405
268.4661255
269.2470093
270.0623169
271.0663147
272.4036255
274.1766357
276.1693726
276.5150146
277.5088806
278.2557983
279.4397583
281.913208
285.0036316
287.9042358
291.1185303
294.149292
296.3922729
296.6690063
297.3334961
298.5288086
299.5370178
300.9873962
302.986969
304.1844788
305.1246643
306.2928467
307.9709473
309.2786865
312.570343
316.1989136
319.1475525
320.4451904
322.0215454
324.4674377
326.9426575
330.1766052
333.8399658
336.4869385
338.7070923
341.0622559
344.1427307
347.142395
350.7155457
353.5872192
356.151001
358.744873
362.144043
363.8432007
366.1372681
368.2608948
370.2421265
372.2648315
374.8110962
377.2127075
378.9154053
380.1264648
380.6300354
379.9500122
380.1176147
380.1586914
380.0490112
378.6438599
376.4619446
374.1730042
371.605957
365.9753418
359.0983887
351.4057312
344.6948853
336.2158203
328.8849487
318.578064
307.9223938
297.8307495
287.911499
276.8636475
263.956604
253.1622009
241.193985
233.3796082
222.1255493
220.007843
216.2230225
223.8362122
232.137207
249.1911774
268.0951538
294.7351074
336.5697021
411.0080261
516.3104858
657.5804443
808.2481689
952.6739502
1075.003052
1182.218384
1284.62915
1371.392822
1409.873901
1366.214355
1224.079102
995.5665894
709.9418335
407.4195251
141.7034454
-75.85281372
-192.3375549
-277.2373047
-265.6326294
-260.7068787
-206.2940674
-166.3358154
-121.8714294
-76.1002655
-43.80012512
-3.316986084
18.7037735
48.84667206
59.72357178
80.27915192
89.70110321
102.2304535
104.1596832
113.182251
119.4748383
124.7644348
127.7961044
130.8698425
131.8066254
131.8186493
130.3699493
127.359993
122.7992401
119.0283279
115.4864578
112.2263412
109.7586136
107.6312714
105.2520218
103.3703232
101.2633743
100.0800018
97.6052475
96.92832947
95.26819611
92.55870819
89.85452271
86.65594482
83.01555634
79.47048187
75.56777954
72.04176331
67.94412231
65.93389893
63.32623672
59.92648697
57.63486481
54.51942825
51.19241714
48.69126511
46.07424927
44.31149292
41.56898117
39.93919754
38.13008499
36.67011642
37.0136261
38.21051025
39.67406082
41.65073776
44.30214691
47.23550415
49.95790482
53.73805237
56.84148026
58.91954041
61.47063828
62.9038887
63.65243912
64.09686279
64.61297607
65.48137665
65.81329346
66.87207031
66.80478668
66.02859497
63.49436951
60.33284378
56.66851425
52.18459702
46.82112122
41.41365051
34.34814453
27.31564713
20.30500603
13.30737114
7.259830475
2.103973389
-1.757266998
-5.299110413
-8.773609161
-12.47457123
-16.52772522
-21.42259979
-25.36772156
-28.2776947
-30.51577759
-32.64046478
-34.72148895
-36.03730774
-36.73039246
-35.50653839
-35.08586121
-34.62182617
-35.40413284
-36.95876312
-40.5747757
-47.32357788
-55.2682724
-65.44418335
-74.28122711
-87.59186554
-101.2970657
-116.4320374
-128.0181427
-145.3479614
-163.2929688
-182.9223633
-200.5236816
-224.0940857
-248.1491089
-271.4696045
-295.3118896
-318.1108398
-338.6800537
-357.0490112
-371.8556824
-384.3817444
-393.2053833
-398.8600159
-400.5058289
-397.9434509
-394.0904541
-387.9335022
-376.0571899
-369.5196533
-363.5805664
-357.1359253
-350.7105103
-344.3837585
-336.9914551
-328.5856628
-322.1716003
-314.4308777
-305.1990356
-296.7516174
-288.6074524
-281.5959167
-274.531189
-269.8946533
-264.705658
-259.1083679
-254.260498
-248.6188507
-240.8380585
-232.2953339
-222.879303
-213.3618622
-203.2107849
-194.6400909
-186.7527771
-178.2206573
-171.4218445
-164.5570068
-156.7214966
-148.3852844
-138.9825439
-130.399765
-121.4661636
-112.7557068
-103.4765167
-93.75785065
-84.8782959
-76.43949127
-68.2591095
-61.58971405
-55.38933563
-48.00493622
-39.58504486
-31.83930588
-23.49387741
-15.30716324
-7.259929657
1.634963989
11.50267792
20.83135986
29.40518188
36.65924072
43.91338348
50.51933289
56.96385193
63.92247009
69.76542664
75.78419495
82.19207764
87.8934021
92.49661255
96.40817261
100.7314453
103.2556458
104.402298
104.2566528
103.4683838
102.5263214
101.0470734
99.18911743
97.02441406
94.71464539
93.43171692
91.73628235
89.86608887
88.686203
86.02445984
84.70680237
83.64620972
83.69857788
83.52209473
82.75976563
82.59184265
82.87748718
84.31443787
86.87667847
90.46594238
94.85939026
99.81692505
105.591156
111.2568359
116.2871399
121.3474426
127.3888245
134.0338135
140.9874573
149.0001831
157.8128052
168.1932678
177.8833923
186.9646301
192.6856995
199.0147095
202.2338257
205.1870117
208.0581055
213.2666321
219.3721619
222.9490662
236.2528381
245.3453674
282.2579651
334.3760986
424.105835
537.7560425
683.8338623
834.458374
967.7514648
1074.162109
1158.640015
1232.706299
1289.401367
1295.572632
1220.937988
1068.220703
855.7814941
600.5344849
328.6634827
63.28460693
-179.5583344
-364.5894165
-505.0041504
-566.6658936
-603.3588257
-591.9763184
-587.6748047
-570.0942383
-554.6536255
-538.5245361
-521.2984009
-513.1685181
-503.5046997
-504.6085205
-501.307251
-502.9606934
-501.2504578
-501.7978516
-499.1762695
-498.6078491
-497.3859558
-497.4109192
-499.9772949
-502.9423828
-506.151947
-509.1965332
-512.6002197
-515.2874756
-517.2055664
-519.0528564
-520.7067871
-522.9006348
-526.0189209
-528.2632446
-531.0587769
-534.708374
-538.0528564
-540.8577881
-542.2412109
-542.4927979
-540.9034424
-539.7662964
-540.1344604
-540.1466064
-540.3662109
-540.7202759
-540.3560791
-539.451355
-537.7188721
-535.2034912
-530.6467896
-525.4222412
-519.9907227
-514.1176758
-509.0909729
-504.6756287
-499.9194336
-495.4844971
-491.2315063
-486.608551
-481.6453857
-477.2034302
-473.5001831
-471.6588135
-469.2015686
-467.2529907
-466.4003296
-467.3201904
-468.8581543
-471.5940552
-474.900238
-479.080719
-484.072998
-489.3574524
-495.1377563
-500.9631958
-507.1855469
-513.0722656
-519.0794067
-524.6333008
-529.6585083
-534.2901001
-539.0004883
-543.5203857
-548.1439209
-552.4473877
-556.2342529
-559.8377686
-562.0628662
-562.944458
-562.1870117
-559.4285889
-556.3415527
-552.2099609
-547.8201904
-543.1070557
-538.8026123
-535.491333
-531.9907227
-528.7990723
-526.0899658
-523.1558228
-520.5717773
-517.300415
-514.1929932
-510.8665161
-508.0792542
-505.4813538
-504.6433411
-505.6421204
-508.1262817
-510.287323
-515.2740479
-521.0748901
-527.1962891
-534.3516235
-542.7407227
-551.2515259
-557.5292969
-562.6113892
-567.0537109
-569.1448975
-571.2269897
-573.6106567
-576.0559082
-577.9689331
-579.9281616
-580.9383545
-580.6394043
-579.3631592
-577.5878906
-573.526062
-569.0102539
-563.7067261
-557.199585
-550.8105469
-545.765564
-542.093689
-539.1146851
-537.0021362
-535.6075439
-533.2789307
-531.569458
-529.4002686
-525.9022217
-521.3032227
-516.9731445
-513.2846069
-509.324646
-506.1643677
-504.3556519
-502.0421143
-500.4873047
-498.9310608
-497.0264893
-495.2935791
-493.8390808
-491.73349
-489.0417786
-485.68573
-482.1543884
-477.6646423
-473.9396667
-470.8506775
-467.75177
-463.6890869
-460.2179565
-456.6410217
-452.4410706
-448.4550476
-444.4667358
-439.7902222
-435.7666931
-431.3437805
-426.490448
-422.3613892
-418.4376526
-415.2709656
-411.6131592
-409.5126038
-407.4108276
-405.2017517
-403.7971191
-403.0571289
-402.9257507
-402.5083923
-402.3471375
-402.9377747
-403.219574
-403.4466248
-403.6998901
-404.0772095
-406.0440674
-408.5003967
-411.8291626
-415.9568481
-420.8672791
-426.5467224
-432.4406433
-438.3807068
-444.7597351
-451.4871521
-459.4781189
-467.2972717
-475.941803
-484.8865967
-494.8404541
-505.5684204
-516.9315186
-527.8400269
-539.2423096
-550.227356
-560.6898193
-570.6196289
-580.3049927
-590.4822998
-600.2946167
-610.5552368
-620.1337891
-628.6361694
-637.3001709
-644.9406128
-651.2692871
-657.8041992
-663.1304321
-667.083252
-669.9591064
-672.8867188
-674.7479248
-674.809082
-673.5361938
-672.2875977
-668.861084
-664.2641602
-660.116333
-656.440918
-652.7681274
-649.8134766
-648.1410522
-645.7539673
-645.3681641
-642.1051025
-643.0045776
-642.0567627
-643.80896
-647.0120239
-645.8406982
-646.1873169
-632.979126
-624.7354736
-579.2938232
-528.486084
-444.2294617
-334.8107605
-205.8511047
-65.54632568
68.99835205
192.1677856
301.8751221
401.40271
491.6948242
558.0117798
572.6558838
518.0718384
395.4910278
213.7796631
-9.571472168
-245.7137451
-471.2929688
-661.4328003
-815.0311279
-881.3804932
-934.8043213
-923.0577393
-906.3118286
-856.6584473
-817.1868286
-774.4710693
-729.9804077
-691.0531006
-648.1941528
-619.586792
-587.65625
-566.4088135
-543.4174194
-530.503418
-511.0775452
-495.9907227
-479.9813232
-468.5115356
-456.3545837
-445.8965454
-437.4973145
-431.1301575
-427.0459595
-423.770752
-420.0855103
-416.3908081
-410.9038696
-404.9004517
-398.4966431
-391.7875366
-385.7244873
-380.4429932
-376.2888794
-371.9534302
-367.9812622
-365.4035645
-362.1989441
-358.5639648
-354.8181458
-350.8566895
-346.1571655
-341.0656128
-337.2846069
-334.2114258
-331.03479
-330.4427185
-329.1373901
-328.5914917
-327.7915955
-327.1393433
-326.2388306
-324.4202881
-322.9144287
-319.9054565
-314.8876953
-308.9945679
-303.0805664
-296.9503784
-290.6801147
-284.0429688
-277.2904053
-269.0239868
-260.5517578
-252.0014038
-243.4914703
-236.0102844
-227.7476501
-219.9428101
-213.0140381
-205.7546539
-198.484024
-190.8239136
-184.2819824
-179.3266296
-175.4634094
-173.1725922
-170.7287903
-168.9222717
-166.537735
-164.0590057
-162.5583954
-159.7224579
-155.7404785
-151.8512268
-147.389679
-143.2621765
-140.0108032
-135.6878052
-130.3240051
-124.3720779
-119.6048126
-111.7508545
-102.2923279
-92.16841888
-80.48752594
-67.28514099
-52.6230545
-38.44632721
-21.42661095
-3.716880798
13.46098328
31.34801483
48.20606613
65.05818176
82.80644989
100.2025833
116.1084442
132.0723114
147.94104
163.1475372
176.0058289
188.4947968
199.0578918
207.0163116
214.571167
220.5400238
224.4393463
227.7779236
231.4212952
234.5321655
235.6471558
237.140686
236.299118
234.4062805
231.4769592
226.9111938
221.0380859
215.3400879
209.5108795
205.1322479
199.3590546
193.9275665
187.1031189
179.8695068
170.5592346
159.4333344
147.609436
136.649704
126.7718506
118.3688889
111.2523346
105.4123306
99.80264282
95.36592865
91.50479126
88.89434814
86.76312256
85.59520721
84.74980164
84.03213501
83.26544189
85.02202606
87.56990814
91.07953644
95.43753052
99.6003418
103.7637329
107.6323853
111.415329
114.9213638
119.5700989
125.3800583
131.5516968
138.2666931
144.980957
150.6837158
157.7430725
165.3101044
173.5180664
182.2146454
189.7714081
198.5180969
206.9114075
215.5056763
223.807373
232.2761841
241.13797
250.957489
261.0025024
271.7128296
281.9692078
293.5956421
305.2181396
316.927948
328.2519531
339.8279114
350.6677856
361.5149841
370.7659302
380.7129517
389.5471191
398.7006836
407.1187439
415.7019348
423.3879395
429.0678711
433.583313
436.888855
439.1538696
441.6640625
443.4279175
445.0896606
446.7217102
447.9569702
448.3817749
448.2144165
448.4307861
447.6983948
445.9795532
444.5009766
442.1323242
439.3581543
436.5549316
433.6253662
430.7854309
427.083252
422.712677
417.8383179
412.0780029
405.1342773
397.7588501
388.9544678
379.5172424
368.7844849
358.2227478
348.2115173
339.1723022
330.9697571
324.0645752
318.3577576
313.2105103
309.7973022
307.0097046
302.5891724
300.60672
297.854248
299.2205505
300.5292053
305.2354736
307.846344
317.1376953
322.9223633
338.510376
352.357666
379.3218994
401.4338379
444.2864685
488.824646
559.43396
639.536438
730.0098267
822.4303589
916.331665
1007.906494
1087.938965
1166.998047
1242.962891
1290.799316
1284.641357
1210.030518
1074.920776
889.9613647
660.5505371
414.1278076
187.9797516
33.1244812
-92.48248291
-152.9821167
-178.7194214
-127.4724121
-90.1491394
-21.44140625
34.24691772
90.36471558
144.1836243
172.5635071
210.829895
222.2593231
250.2312775
256.894043
276.2181396
286.4734192
298.4788208
302.2107544
307.2160645
309.7076721
311.4473267
311.768219
313.4541626
315.990387
319.1497803
323.3486328
327.0036011
330.3747559
332.8274536
334.475769
335.5637207
334.8286743
334.5745544
334.3529053
334.6618652
335.3417969
336.3598938
337.2092896
337.8908997
337.2107544
336.4613647
334.1898499
332.0788879
330.7528992
329.9645996
330.4750366
331.317688
332.6464844
334.7413635
336.6126099
340.5486145
344.3674316
349.1822205
355.5378418
361.5994568
367.1694946
373.6456299
381.4493408
389.8777161
-99.84000563
-99.91722849
-99.99445135
-100.0716742
-100.1488971
-100.2261199
-100.3033428
-100.3805656
-100.4577885
-100.5350114
-100.6122342
-100.6894571
-100.7666799
-100.8439028
-100.9211257
-100.9983485
-101.0755714
-101.1527942
-101.2300171
-101.30724
-101.3844628
-101.4616857
-101.5389085
-101.6161314
-101.6933543
-101.7705771
-101.8478
-101.9250228
-102.0022457
-102.0794686
-102.1566914
-102.2339143
-102.3111371
-102.38836
-102.4655829
-102.5428057
-102.6200286
-102.6972514
-102.7744743
-102.8516972
-102.92892
-103.0061429
-103.0833657
-103.1605886
-103.2378115
-103.3150343
-103.3922572
-103.46948
-103.5467029
-103.6239258
-103.7011486
-103.7783715
-103.8555943
-103.9328172
-104.0100401
-104.0872629
-104.1644858
-104.2417086
-104.3189315
-104.3961544
-104.4733772
-104.5506001
-104.6278229
-104.7050458
-104.7822687
-104.8594915
-104.9367144
-105.0139372
-105.0911601
-105.1683829
-105.2456058
-105.3228287
-105.4000515
-105.4772744
-105.5544972
-105.6317201
-105.708943
-105.7861658
-105.8633887
-105.9406115
-106.0178344
-106.0950573
-106.1722801
-106.249503
-106.3267258
-106.4039487
-106.4811716
-106.5583944
-106.6356173
-106.7128401
-106.790063
-106.8672859
-106.9445087
-107.0217316
-107.0989544
-107.1761773
-107.2534002
-107.330623
-107.4078459
-107.4850687
-107.5622916
-107.6395145
-107.7167373
-107.7939602
-107.871183
-107.9484059
-108.0256288
-108.1028516
-108.1800745
-108.2572973
-108.3345202
-108.4117431
-108.4889659
-108.5661888
-108.6434116
-108.7206345
-108.7978574
-108.8750802
-108.9523031
-109.0295259
-109.1067488
-109.1839717
-109.2611945
-109.3384174
-109.4156402
-109.4928631
-109.570086
-109.6473088
-109.7245317
-109.8017545
-109.8789774
-109.9562003
-110.0334231
-110.110646
-110.1878688
-110.2650917
-110.3423145
-110.4195374
-110.4967603
-110.5739831
-110.651206
-110.7284288
-110.8056517
-110.8828746
-110.9600974
-111.0373203
-111.1145431
-111.191766
-111.2689889
-111.3462117
-111.4234346
-111.5006574
-111.5778803
-111.6551032
-111.732326
-111.8095489
-111.8867717
-111.9639946
-112.0412175
-112.1184403
-112.1956632
-112.272886
-112.3501089
-112.4273318
-112.5045546
-112.5817775
-112.6590003
-112.7362232
-112.8134461
-112.8906689
-112.9678918
-113.0451146
-113.1223375
-113.1995604
-113.2767832
-113.3540061
-113.4312289
-113.5084518
-113.5856747
-113.6628975
-113.7401204
-113.8173432
-113.8945661
-113.971789
-114.0490118
-114.1262347
-114.2034575
-114.2806804
-114.3579033
-114.4351261
-114.512349
-114.5895718
-114.6667947
-114.7440176
-114.8212404
-114.8984633
-114.9756861
-115.052909
-115.1301319
-115.2073547
-115.2845776
-115.3618004
-115.4390233
-115.5162462
-115.593469
-115.6706919
-115.7479147
-115.8251376
-115.9023604
-115.9795833
-116.0568062
-116.134029
-116.2112519
-116.2884747
-116.3656976
-116.4429205
-116.5201433
-116.5973662
-116.674589
-116.7518119
-116.8290348
-116.9062576
-116.9834805
-117.0607033
-117.1379262
-117.2151491
-117.2923719
-117.3695948
-117.4468176
-117.5240405
-117.6012634
-117.6784862
-117.7557091
-117.8329319
-117.9101548
-117.9873777
-118.0646005
-118.1418234
-118.2190462
-118.2962691
-118.373492
-118.4507148
-118.5279377
-118.6051605
-118.6823834
-118.7596063
-118.8368291
-118.914052
-118.9912748
-119.0684977
-119.1457206
-119.2229434
-119.3001663
-119.3773891
-119.454612
-119.5318349
-119.6090577
-119.6862806
-119.7635034
-119.8407263
-119.9179492
-119.995172
-120.0723949
-120.1496177
-120.2268406
-120.3040635
-120.3812863
-120.4585092
-120.535732
-120.6129549
-120.6901778
-120.7674006
-120.8446235
-120.9218463
-120.9990692
-121.076292
-121.1535149
-121.2307378
-121.3079606
-121.3851835
-121.4624063
-121.5396292
-121.6168521
-121.6940749
-121.7712978
-121.8485206
-121.9257435
-122.0029664
-122.0801892
-122.1574121
-122.2346349
-122.3118578
-122.3890807
-122.4663035
-122.5435264
-122.6207492
-122.6979721
-122.775195
-122.8524178
-122.9296407
-123.0068635
-123.0840864
-123.1613093
-123.2385321
-123.315755
-123.3929778
-123.4702007
-123.5474236
-123.6246464
-123.7018693
-123.7790921
-123.856315
-123.9335379
-124.0107607
-124.0879836
-124.1652064
-124.2424293
-124.3196522
-124.396875
-124.4740979
-124.5513207
-124.6285436
-124.7057665
-124.7829893
-124.8602122
-124.937435
-125.0146579
-125.0918808
-125.1691036
-125.2463265
-125.3235493
-125.4007722
-125.4779951
-125.5552179
-125.6324408
-125.7096636
-125.7868865
-125.8641094
-125.9413322
-126.0185551
-126.0957779
-126.1730008
-126.2502237
-126.3274465
-126.4046694
-126.4818922
-126.5591151
-126.6363379
-126.7135608
-126.7907837
-126.8680065
-126.9452294
-127.0224522
-127.0996751
-127.176898
-127.2541208
-127.3313437
-127.4085665
-127.4857894
-127.5630123
-127.6402351
-127.717458
-127.7946808
-127.8719037
-127.9491266
-128.0263494
-128.1035723
-128.1807951
-128.258018
-128.3352409
-128.4124637
-128.4896866
-128.5669094
-128.6441323
-128.7213552
-128.798578
-128.8758009
-128.9530237
-129.0302466
-129.1074695
-129.1846923
-129.2619152
-129.339138
-129.4163609
-129.4935838
-129.5708066
-129.6480295
-129.7252523
-129.8024752
-129.8796981
-129.9569209
-130.0341438
-130.1113666
-130.1885895
-130.2658124
-130.3430352
-130.4202581
-130.4974809
-130.5747038
-130.6519267
-130.7291495
-130.8063724
-130.8835952
-130.9608181
-131.038041
-131.1152638
-131.1924867
-131.2697095
-131.3469324
-131.4241553
-131.5013781
-131.578601
-131.6558238
-131.7330467
-131.8102695
-131.8874924
-131.9647153
-132.0419381
-132.119161
-132.1963838
-132.2736067
-132.3508296
-132.4280524
-132.5052753
-132.5824981
-132.659721
-132.7369439
-132.8141667
-132.8913896
-132.9686124
-133.0458353
-133.1230582
-133.200281
-133.2775039
-133.3547267
-133.4319496
-133.5091725
-133.5863953
-133.6636182
-133.740841
-133.8180639
-133.8952868
-133.9725096
-134.0497325
-134.1269553
-134.2041782
-134.2814011
-134.3586239
-134.4358468
-134.5130696
-134.5902925
-134.6675154
-134.7447382
-134.8219611
-134.8991839
-134.9764068
-135.0536297
-135.1308525
-135.2080754
-135.2852982
-135.3625211
-135.439744
-135.5169668
-135.5941897
-135.6714125
-135.7486354
-135.8258583
-135.9030811
-135.980304
-136.0575268
-136.1347497
-136.2119726
-136.2891954
-136.3664183
-136.4436411
-136.520864
-136.5980869
-136.6753097
-136.7525326
-136.8297554
-136.9069783
-136.9842012
-137.061424
-137.1386469
-137.2158697
-137.2930926
-137.3703154
-137.4475383
-137.5247612
-137.601984
-137.6792069
-137.7564297
-137.8336526
-137.9108755
-137.9880983
-138.0653212
-138.142544
-138.2197669
-138.2969898
-138.3742126
-138.4514355
-138.5286583
-138.6058812
-138.6831041
-138.7603269
-138.8375498
-138.9147726
-138.9919955
-139.0692184
-139.1464412
-139.2236641
-139.3008869
-139.3781098
-139.4553327
-139.5325555
-139.6097784
-139.6870012
-139.7642241
-139.841447
-139.9186698
-139.9958927
-140.0731155
-140.1503384
-140.2275613
-140.3047841
-140.382007
-140.4592298
-140.5364527
-140.6136756
-140.6908984
-140.7681213
-140.8453441
-140.922567
-140.9997899
-141.0770127
-141.1542356
-141.2314584
-141.3086813
-141.3859042
-141.463127
-141.5403499
-141.6175727
-141.6947956
-141.7720185
-141.8492413
-141.9264642
-142.003687
-142.0809099
-142.1581328
-142.2353556
-142.3125785
-142.3898013
-142.4670242
-142.544247
-142.6214699
-142.6986928
-142.7759156
-142.8531385
-142.9303613
-143.0075842
-143.0848071
-143.1620299
-143.2392528
-143.3164756
-143.3936985
-143.4709214
-143.5481442
-143.6253671
-143.7025899
-143.7798128
-143.8570357
-143.9342585
-144.0114814
-144.0887042
-144.1659271
-144.24315
-144.3203728
-144.3975957
-144.4748185
-144.5520414
-144.6292643
-144.7064871
-144.78371
-144.8609328
-144.9381557
-145.0153786
-145.0926014
-145.1698243
-145.2470471
-145.32427
-145.4014929
-145.4787157
-145.5559386
-145.6331614
-145.7103843
-145.7876072
-145.86483
-145.9420529
-146.0192757
-146.0964986
-146.1737215
-146.2509443
-146.3281672
-146.40539
-146.4826129
-146.5598358
-146.6370586
-146.7142815
-146.7915043
-146.8687272
-146.9459501
-147.0231729
-147.1003958
-147.1776186
-147.2548415
-147.3320644
-147.4092872
-147.4865101
-147.5637329
-147.6409558
-147.7181786
-147.7954015
-147.8726244
-147.9498472
-148.0270701
-148.1042929
-148.1815158
-148.2587387
-148.3359615
-148.4131844
-148.4904072
-148.5676301
-148.644853
-148.7220758
-148.7992987
-148.8765215
-148.9537444
-149.0309673
-149.1081901
-149.185413
-149.2626358
-149.3398587
-149.4170816
-149.4943044
-149.5715273
-149.6487501
-149.725973
-149.8031959
-149.8804187
-149.9576416
-150.0348644
-150.1120873
-150.1893102
-150.266533
-150.3437559
-150.4209787
-150.4982016
-150.5754245
-150.6526473
-150.7298702
-150.807093
-150.8843159
-150.9615388
-151.0387616
-151.1159845
-151.1932073
-151.2704302
-151.3476531
-151.4248759
-151.5020988
-151.5793216
-151.6565445
-151.7337674
-151.8109902
-151.8882131
-151.9654359
-152.0426588
-152.1198817
-152.1971045
-152.2743274
-152.3515502
-152.4287731
-152.505996
-152.5832188
-152.6604417
-152.7376645
-152.8148874
-152.8921103
-152.9693331
-153.046556
-153.1237788
-153.2010017
-153.2782245
-153.3554474
-153.4326703
-153.5098931
-153.587116
-153.6643388
-153.7415617
-153.8187846
-153.8960074
-153.9732303
-154.0504531
-154.127676
-154.2048989
-154.2821217
-154.3593446
-154.4365674
-154.5137903
-154.5910132
-154.668236
-154.7454589
-154.8226817
-154.8999046
-154.9771275
-155.0543503
-155.1315732
-155.208796
-155.2860189
-155.3632418
-155.4404646
-155.5176875
-155.5949103
-155.6721332
-155.7493561
-155.8265789
-155.9038018
-155.9810246
-156.0582475
-156.1354704
-156.2126932
-156.2899161
-156.3671389
-156.4443618
-156.5215847
-156.5988075
-156.6760304
-156.7532532
-156.8304761
-156.907699
-156.9849218
-157.0621447
-157.1393675
-157.2165904
-157.2938133
-157.3710361
-157.448259
-157.5254818
-157.6027047
-157.6799276
-157.7571504
-157.8343733
-157.9115961
-157.988819
-158.0660419
-158.1432647
-158.2204876
-158.2977104
-158.3749333
-158.4521561
-158.529379
-158.6066019
-158.6838247
-158.7610476
-158.8382704
-158.9154933
-158.9927162
-159.069939
-159.1471619
-159.2243847
-159.3016076
-159.3788305
-159.4560533
-159.5332762
-159.610499
-159.6877219
-159.7649448
-159.8421676
-159.9193905
-159.9966133
-160.0738362
-160.1510591
-160.2282819
-160.3055048
-160.3827276
-160.4599505
-160.5371734
-160.6143962
-160.6916191
-160.7688419
-160.8460648
-160.9232877
-161.0005105
-161.0777334
-161.1549562
-161.2321791
-161.309402
-161.3866248
-161.4638477
-161.5410705
-161.6182934
-161.6955163
-161.7727391
-161.849962
-161.9271848
-162.0044077
-162.0816306
-162.1588534
-162.2360763
-162.3132991
-162.390522
-162.4677449
-162.5449677
-162.6221906
-162.6994134
-162.7766363
-162.8538592
-162.931082
-163.0083049
-163.0855277
-163.1627506
-163.2399735
-163.3171963
-163.3944192
-163.471642
-163.5488649
-163.6260878
-163.7033106
-163.7805335
-163.8577563
-163.9349792
-164.012202
-164.0894249
-164.1666478
-164.2438706
-164.3210935
-164.3983163
-164.4755392
-164.5527621
-164.6299849
-164.7072078
-164.7844306
-164.8616535
-164.9388764
-165.0160992
-165.0933221
-165.1705449
-165.2477678
-165.3249907
-165.4022135
-165.4794364
-165.5566592
-165.6338821
-165.711105
-165.7883278
-165.8655507
-165.9427735
-166.0199964
-166.0972193
-166.1744421
-166.251665
-166.3288878
-166.4061107
-166.4833336
-166.5605564
-166.6377793
-166.7150021
-166.792225
-166.8694479
-166.9466707
-167.0238936
-167.1011164
-167.1783393
-167.2555622
-167.332785
-167.4100079
-167.4872307
-167.5644536
-167.6416765
-167.7188993
-167.7961222
-167.873345
-167.9505679
-168.0277908
-168.1050136
-168.1822365
-168.2594593
-168.3366822
-168.4139051
-168.4911279
-168.5683508
-168.6455736
-168.7227965
-168.8000194
-168.8772422
-168.9544651
-169.0316879
-169.1089108
-169.1861336
-169.2633565
-169.3405794
-169.4178022
-169.4950251
-169.5722479
-169.6494708
-169.7266937
-169.8039165
-169.8811394
-169.9583622
-170.0355851
-170.112808
-170.1900308
-170.2672537
-170.3444765
-170.4216994
-170.4989223
-170.5761451
-170.653368
-170.7305908
-170.8078137
-170.8850366
-170.9622594
-171.0394823
-171.1167051
-171.193928
-171.2711509
-171.3483737
-171.4255966
-171.5028194
-171.5800423
-171.6572652
-171.734488
-171.8117109
-171.8889337
-171.9661566
-172.0433795
-172.1206023
-172.1978252
-172.275048
-172.3522709
-172.4294938
-172.5067166
-172.5839395
-172.6611623
-172.7383852
-172.8156081
-172.8928309
-172.9700538
-173.0472766
-173.1244995
-173.2017224
-173.2789452
-173.3561681
-173.4333909
-173.5106138
-173.5878367
-173.6650595
-173.7422824
-173.8195052
-173.8967281
-173.973951
-174.0511738
-174.1283967
-174.2056195
-174.2828424
-174.3600653
-174.4372881
-174.514511
-174.5917338
-174.6689567
-174.7461795
-174.8234024
-174.9006253
-174.9778481
-175.055071
-175.1322938
-175.2095167
-175.2867396
-175.3639624
-175.4411853
-175.5184081
-175.595631
-175.6728539
-175.7500767
-175.8272996
-175.9045224
-175.9817453
-176.0589682
-176.136191
-176.2134139
-176.2906367
-176.3678596
-176.4450825
-176.5223053
-176.5995282
-176.676751
-176.7539739
-176.8311968
-176.9084196
-176.9856425
-177.0628653
-177.1400882
-177.2173111
-177.2945339
-177.3717568
-177.4489796
-177.5262025
-177.6034254
-177.6806482
-177.7578711
-177.8350939
-177.9123168
-177.9895397
-178.0667625
-178.1439854
-178.2212082
-178.2984311
-178.375654
-178.4528768
-178.5300997
-178.6073225
-178.6845454
-178.7617683
-178.8389911
-178.916214
-178.9934368
-179.0706597
-179.1478826
-179.2251054
-179.3023283
-179.3795511
-179.456774
-179.5339969
-179.6112197
-179.6884426
-179.7656654
-179.8428883
-179.9201111
-179.997334
-180.0745569
-180.1517797
-180.2290026
-180.3062254
-180.3834483
-180.4606712
-180.537894
-180.6151169
-180.6923397
-180.7695626
-180.8467855
-180.9240083
-181.0012312
-181.078454
-181.1556769
-181.2328998
-181.3101226
-181.3873455
-181.4645683
-181.5417912
-181.6190141
-181.6962369
-181.7734598
-181.8506826
-181.9279055
-182.0051284
-182.0823512
-182.1595741
-182.2367969
-182.3140198
-182.3912427
-182.4684655
-182.5456884
-182.6229112
-182.7001341
-182.777357
-182.8545798
-182.9318027
-183.0090255
-183.0862484
-183.1634713
-183.2406941
-183.317917
-183.3951398
-183.4723627
-183.5495856
-183.6268084
-183.7040313
-183.7812541
-183.858477
-183.9356999
-184.0129227
-184.0901456
-184.1673684
-184.2445913
-184.3218142
-184.399037
-184.4762599
-184.5534827
-184.6307056
-184.7079285
-184.7851513
-184.8623742
-184.939597
-185.0168199
-185.0940427
-185.1712656
-185.2484885
-185.3257113
-185.4029342
-185.480157
-185.5573799
-185.6346028
-185.7118256
-185.7890485
-185.8662713
-185.9434942
-186.0207171
-186.0979399
-186.1751628
-186.2523856
-186.3296085
-186.4068314
-186.4840542
-186.5612771
-186.6384999
-186.7157228
-186.7929457
-186.8701685
-186.9473914
-187.0246142
-187.1018371
-187.17906
-187.2562828
-187.3335057
-187.4107285
-187.4879514
-187.5651743
-187.6423971
-187.71962
-187.7968428
-187.8740657
-187.9512886
-188.0285114
-188.1057343
-188.1829571
-188.26018
-188.3374029
-188.4146257
-188.4918486
-188.5690714
-188.6462943
-188.7235172
-188.80074
-188.8779629
-188.9551857
-189.0324086
-189.1096315
-189.1868543
-189.2640772
-189.3413
-189.4185229
-189.4957458
-189.5729686
-189.6501915
-189.7274143
-189.8046372
-189.8818601
-189.9590829
-190.0363058
-190.1135286
-190.1907515
-190.2679744
-190.3451972
-190.4224201
-190.4996429
-190.5768658
-190.6540886
-190.7313115
-190.8085344
-190.8857572
-190.9629801
-191.0402029
-191.1174258
-191.1946487
-191.2718715
-191.3490944
-191.4263172
-191.5035401
-191.580763
-191.6579858
-191.7352087
-191.8124315
-191.8896544
-191.9668773
-192.0441001
-192.121323
-192.1985458
-192.2757687
-192.3529916
-192.4302144
-192.5074373
-192.5846601
-192.661883
-192.7391059
-192.8163287
-192.8935516
-192.9707744
-193.0479973
-193.1252202
-193.202443
-193.2796659
-193.3568887
-193.4341116
-193.5113345
-193.5885573
-193.6657802
-193.743003
-193.8202259
-193.8974488
-193.9746716
-194.0518945
-194.1291173
-194.2063402
-194.2835631
-194.3607859
-194.4380088
-194.5152316
-194.5924545
-194.6696774
-194.7469002
-194.8241231
-194.9013459
-194.9785688
-195.0557917
-195.1330145
-195.2102374
-195.2874602
-195.3646831
-195.441906
-195.5191288
-195.5963517
-195.6735745
-195.7507974
-195.8280202
-195.9052431
-195.982466
-196.0596888
-196.1369117
-196.2141345
-196.2913574
-196.3685803
-196.4458031
-196.523026
-196.6002488
-196.6774717
-196.7546946
-196.8319174
-196.9091403
-196.9863631
-197.063586
-197.1408089
-197.2180317
-197.2952546
-197.3724774
-197.4497003
-197.5269232
-197.604146
-197.6813689
-197.7585917
-197.8358146
-197.9130375
-197.9902603
-198.0674832
-198.144706
-198.2219289
-198.2991518
-198.3763746
-198.4535975
-198.5308203
-198.6080432
-198.6852661
-198.7624889
-198.8397118
-198.9169346
-198.9941575
-199.0713804
-199.1486032
-199.2258261
-199.3030489
-199.3802718
-199.4574947
-199.5347175
-199.6119404
-199.6891632
-199.7663861
-199.843609
-199.9208318
-199.9980547
-200.0752775
-200.1525004
-200.2297233
-200.3069461
-200.384169
-200.4613918
-200.5386147
-200.6158376
-200.6930604
-200.7702833
-200.8475061
-200.924729
-201.0019519
-201.0791747
-201.1563976
-201.2336204
-201.3108433
-201.3880661
-201.465289
-201.5425119
-201.6197347
-201.6969576
-201.7741804
-201.8514033
-201.9286262
-202.005849
-202.0830719
-202.1602947
-202.2375176
-202.3147405
-202.3919633
-202.4691862
-202.546409
-202.6236319
-202.7008548
-202.7780776
-202.8553005
-202.9325233
-203.0097462
-203.0869691
-203.1641919
-203.2414148
-203.3186376
-203.3958605
-203.4730834
-203.5503062
-203.6275291
-203.7047519
-203.7819748
-203.8591977
-203.9364205
-204.0136434
-204.0908662
-204.1680891
-204.245312
-204.3225348
-204.3997577
-204.4769805
-204.5542034
-204.6314263
-204.7086491
-204.785872
-204.8630948
-204.9403177
-205.0175406
-205.0947634
-205.1719863
-205.2492091
-205.326432
-205.4036549
-205.4808777
-205.5581006
-205.6353234
-205.7125463
-205.7897692
-205.866992
-205.9442149
-206.0214377
-206.0986606
-206.1758835
-206.2531063
-206.3303292
-206.407552
-206.4847749
-206.5619977
-206.6392206
-206.7164435
-206.7936663
-206.8708892
-206.948112
-207.0253349
-207.1025578
-207.1797806
-207.2570035
-207.3342263
-207.4114492
-207.4886721
-207.5658949
-207.6431178
-207.7203406
-207.7975635
-207.8747864
-207.9520092
-208.0292321
-208.1064549
-208.1836778
-208.2609007
-208.3381235
-208.4153464
-208.4925692
-208.5697921
-208.647015
-208.7242378
-208.8014607
-208.8786835
-208.9559064
-209.0331293
-209.1103521
-209.187575
-209.2647978
-209.3420207
-209.4192436
-209.4964664
-209.5736893
-209.6509121
-209.728135
-209.8053579
-209.8825807
-209.9598036
-210.0370264
-210.1142493
-210.1914722
-210.268695
-210.3459179
-210.4231407
-210.5003636
-210.5775865
-210.6548093
-210.7320322
-210.809255
-210.8864779
-210.9637008
-211.0409236
-211.1181465
-211.1953693
-211.2725922
-211.3498151
-211.4270379
-211.5042608
-211.5814836
-211.6587065
-211.7359294
-211.8131522
-211.8903751
-211.9675979
-212.0448208
-212.1220436
-212.1992665
-212.2764894
-212.3537122
-212.4309351
-212.5081579
-212.5853808
-212.6626037
-212.7398265
-212.8170494
-212.8942722
-212.9714951
-213.048718
-213.1259408
-213.2031637
-213.2803865
-213.3576094
-213.4348323
-213.5120551
-213.589278
-213.6665008
-213.7437237
-213.8209466
-213.8981694
-213.9753923
-214.0526151
-214.129838
-214.2070609
-214.2842837
-214.3615066
-214.4387294
-214.5159523
-214.5931752
-214.670398
-214.7476209
-214.8248437
-214.9020666
-214.9792895
-215.0565123
-215.1337352
-215.210958
-215.2881809
-215.3654038
-215.4426266
-215.5198495
-215.5970723
-215.6742952
-215.7515181
-215.8287409
-215.9059638
-215.9831866
-216.0604095
-216.1376324
-216.2148552
-216.2920781
-216.3693009
-216.4465238
-216.5237467
-216.6009695
-216.6781924
-216.7554152
-216.8326381
-216.909861
-216.9870838
-217.0643067
-217.1415295
-217.2187524
-217.2959752
-217.3731981
-217.450421
-217.5276438
-217.6048667
-217.6820895
-217.7593124
-217.8365353
-217.9137581
-217.990981
-218.0682038
-218.1454267
-218.2226496
-218.2998724
-218.3770953
-218.4543181
-218.531541
-218.6087639
-218.6859867
-218.7632096
-218.8404324
-218.9176553
-218.9948782
-219.072101
-219.1493239
-219.2265467
-219.3037696
-219.3809925
-219.4582153
-219.5354382
-219.612661
-219.6898839
-219.7671068
-219.8443296
-219.9215525
-219.9987753
-220.0759982
-220.1532211
-220.2304439
-220.3076668
-220.3848896
-220.4621125
-220.5393354
-220.6165582
-220.6937811
-220.7710039
-220.8482268
-220.9254497
-221.0026725
-221.0798954
-221.1571182
-221.2343411
-221.311564
-221.3887868
-221.4660097
-221.5432325
-221.6204554
-221.6976783
-221.7749011
-221.852124
-221.9293468
-222.0065697
-222.0837926
-222.1610154
-222.2382383
-222.3154611
-222.392684
-222.4699068
-222.5471297
-222.6243526
-222.7015754
-222.7787983
-222.8560211
-222.933244
-223.0104669
-223.0876897
-223.1649126
-223.2421354
-223.3193583
-223.3965812
-223.473804
-223.5510269
-223.6282497
-223.7054726
-223.7826955
-223.8599183
-223.9371412
-224.014364
-224.0915869
-224.1688098
-224.2460326
-224.3232555
-224.4004783
-224.4777012
-224.5549241
-224.6321469
-224.7093698
-224.7865926
-224.8638155
-224.9410384
-225.0182612
-225.0954841
-225.1727069
-225.2499298
-225.3271527
-225.4043755
-225.4815984
-225.5588212
-225.6360441
-225.713267
-225.7904898
-225.8677127
-225.9449355
-226.0221584
-226.0993813
-226.1766041
-226.253827
-226.3310498
-226.4082727
-226.4854956
-226.5627184
-226.6399413
-226.7171641
-226.794387
-226.8716099
-226.9488327
-227.0260556
-227.1032784
-227.1805013
-227.2577242
-227.334947
-227.4121699
-227.4893927
-227.5666156
-227.6438385
-227.7210613
-227.7982842
-227.875507
-227.9527299
-228.0299527
-228.1071756
-228.1843985
-228.2616213
-228.3388442
-228.416067
-228.4932899
-228.5705128
-228.6477356
-228.7249585
-228.8021813
-228.8794042
-228.9566271
-229.0338499
-229.1110728
-229.1882956
-229.2655185
-229.3427414
-229.4199642
-229.4971871
-229.5744099
-229.6516328
-229.7288557
-229.8060785
-229.8833014
-229.9605242
-230.0377471
-230.11497
-230.1921928
-230.2694157
-230.3466385
-230.4238614
-230.5010843
-230.5783071
-230.65553
-230.7327528
-230.8099757
-230.8871986
-230.9644214
-231.0416443
-231.1188671
-231.19609
-231.2733129
-231.3505357
-231.4277586
-231.5049814
-231.5822043
-231.6594272
-231.73665
-231.8138729
-231.8910957
-231.9683186
-232.0455415
-232.1227643
-232.1999872
-232.27721
-232.3544329
-232.4316558
-232.5088786
-232.5861015
-232.6633243
-232.7405472
-232.8177701
-232.8949929
-232.9722158
-233.0494386
-233.1266615
-233.2038843
-233.2811072
-233.3583301
-233.4355529
-233.5127758
-233.5899986
-233.6672215
-233.7444444
-233.8216672
-233.8988901
-233.9761129
-234.0533358
-234.1305587
-234.2077815
-234.2850044
-234.3622272
-234.4394501
-234.516673
-234.5938958
-234.6711187
-234.7483415
-234.8255644
-234.9027873
-234.9800101
-235.057233
-235.1344558
-235.2116787
-235.2889016
-235.3661244
-235.4433473
-235.5205701
-235.597793
-235.6750159
-235.7522387
-235.8294616
-235.9066844
-235.9839073
-236.0611302
-236.138353
-236.2155759
-236.2927987
-236.3700216
-236.4472445
-236.5244673
-236.6016902
-236.678913
-236.7561359
-236.8333588
-236.9105816
-236.9878045
-237.0650273
-237.1422502
-237.2194731
-237.2966959
-237.3739188
-237.4511416
-237.5283645
-237.6055874
-237.6828102
-237.7600331
-237.8372559
-237.9144788
-237.9917017
-238.0689245
-238.1461474
-238.2233702
-238.3005931
-238.377816
-238.4550388
-238.5322617
-238.6094845
-238.6867074
-238.7639302
-238.8411531
-238.918376
-238.9955988
-239.0728217
-239.1500445
-239.2272674
-239.3044903
-239.3817131
-239.458936
-239.5361588
-239.6133817
-239.6906046
-239.7678274
-239.8450503
-239.9222731
-239.999496
-240.0767189
-240.1539417
-240.2311646
-240.3083874
-240.3856103
-240.4628332
-240.540056
-240.6172789
-240.6945017
-240.7717246
-240.8489475
-240.9261703
-241.0033932
-241.080616
-241.1578389
-241.2350618
-241.3122846
-241.3895075
-241.4667303
-241.5439532
-241.6211761
-241.6983989
-241.7756218
-241.8528446
-241.9300675
-242.0072904
-242.0845132
-242.1617361
-242.2389589
-242.3161818
-242.3934047
-242.4706275
-242.5478504
-242.6250732
-242.7022961
-242.779519
-242.8567418
-242.9339647
-243.0111875
-243.0884104
-243.1656333
-243.2428561
-243.320079
-243.3973018
-243.4745247
-243.5517476
-243.6289704
-243.7061933
-243.7834161
-243.860639
-243.9378618
-244.0150847
-244.0923076
-244.1695304
-244.2467533
-244.3239761
-244.401199
-244.4784219
-244.5556447
-244.6328676
-244.7100904
-244.7873133
-244.8645362
-244.941759
-245.0189819
-245.0962047
-245.1734276
-245.2506505
-245.3278733
-245.4050962
-245.482319
-245.5595419
-245.6367648
-245.7139876
-245.7912105
-245.8684333
-245.9456562
-246.0228791
-246.1001019
-246.1773248
-246.2545476
-246.3317705
-246.4089934
-246.4862162
-246.5634391
-246.6406619
-246.7178848
-246.7951077
-246.8723305
-246.9495534
-247.0267762
-247.1039991
-247.181222
-247.2584448
-247.3356677
-247.4128905
-247.4901134
-247.5673363
-247.6445591
-247.721782
-247.7990048
-247.8762277
-247.9534506
-248.0306734
-248.1078963
-248.1851191
-248.262342
-248.3395649
-248.4167877
-248.4940106
-248.5712334
-248.6484563
-248.7256792
-248.802902
-248.8801249
-248.9573477
-249.0345706
-249.1117934
-249.1890163
-249.2662392
-249.343462
-249.4206849
-249.4979077
-249.5751306
-249.6523535
-249.7295763
-249.8067992
-249.884022
-249.9612449
-250.0384678
-250.1156906
-250.1929135
-250.2701363
-250.3473592
-250.4245821
-250.5018049
-250.5790278
-250.6562506
-250.7334735
-250.8106964
-250.8879192
-250.9651421
-251.0423649
-251.1195878
-251.1968107
-251.2740335
-251.3512564
-251.4284792
-251.5057021
-251.582925
-251.6601478
-251.7373707
-251.8145935
-251.8918164
-251.9690393
-252.0462621
-252.123485
-252.2007078
-252.2779307
-252.3551536
-252.4323764
-252.5095993
-252.5868221
-252.664045
-252.7412679
-252.8184907
-252.8957136
-252.9729364
-253.0501593
-253.1273822
-253.204605
-253.2818279
-253.3590507
-253.4362736
-253.5134965
-253.5907193
-253.6679422
-253.745165
-253.8223879
-253.8996108
-253.9768336
-254.0540565
-254.1312793
-254.2085022
-254.2857251
-254.3629479
-254.4401708
-254.5173936
-254.5946165
-254.6718393
-254.7490622
-254.8262851
-254.9035079
-254.9807308
-255.0579536
-255.1351765
-255.2123994
-255.2896222
-255.3668451
-255.4440679
-255.5212908
-255.5985137
-255.6757365
-255.7529594
-255.8301822
-255.9074051
-255.984628
-256.0618508
-256.1390737
-256.2162965
-256.2935194
-256.3707423
-256.4479651
-256.525188
-256.6024108
-256.6796337
-256.7568566
-256.8340794
-256.9113023
-256.9885251
-257.065748
-257.1429709
-257.2201937
-257.2974166
-257.3746394
-257.4518623
-257.5290852
-257.606308
-257.6835309
-257.7607537
-257.8379766
-257.9151995
-257.9924223
-258.0696452
-258.146868
-258.2240909
-258.3013138
-258.3785366
-258.4557595
-258.5329823
-258.6102052
-258.6874281
-258.7646509
-258.8418738
-258.9190966
-258.9963195
-259.0735424
-259.1507652
-259.2279881
-259.3052109
-259.3824338
-259.4596567
-259.5368795
-259.6141024
-259.6913252
-259.7685481
-259.8457709
-259.9229938
-260.0002167
-260.0774395
-260.1546624
-260.2318852
-260.3091081
-260.386331
-260.4635538
-260.5407767
-260.6179995
-260.6952224
-260.7724453
-260.8496681
-260.926891
-261.0041138
-261.0813367
-261.1585596
-261.2357824
-261.3130053
-261.3902281
-261.467451
-261.5446739
-261.6218967
-261.6991196
-261.7763424
-261.8535653
-261.9307882
-262.008011
-262.0852339
-262.1624567
-262.2396796
-262.3169025
-262.3941253
-262.4713482
-262.548571
-262.6257939
-262.7030168
-262.7802396
-262.8574625
-262.9346853
-263.0119082
-263.0891311
-263.1663539
-263.2435768
-263.3207996
-263.3980225
-263.4752454
-263.5524682
-263.6296911
-263.7069139
-263.7841368
-263.8613597
-263.9385825
-264.0158054
-264.0930282
-264.1702511
-264.247474
-264.3246968
-264.4019197
-264.4791425
-264.5563654
-264.6335883
-264.7108111
-264.788034
-264.8652568
-264.9424797
-265.0197026
-265.0969254
-265.1741483
-265.2513711
-265.328594
-265.4058168
-265.4830397
-265.5602626
-265.6374854
-265.7147083
-265.7919311
-265.869154
-265.9463769
-266.0235997
-266.1008226
-266.1780454
-266.2552683
-266.3324912
-266.409714
-266.4869369
-266.5641597
-266.6413826
-266.7186055
-266.7958283
-266.8730512
-266.950274
-267.0274969
-267.1047198
-267.1819426
-267.2591655
-267.3363883
-267.4136112
-267.4908341
-267.5680569
-267.6452798
-267.7225026
-267.7997255
-267.8769484
-267.9541712
-268.0313941
-268.1086169
-268.1858398
-268.2630627
-268.3402855
-268.4175084
-268.4947312
-268.5719541
-268.649177
-268.7263998
-268.8036227
-268.8808455
-268.9580684
-269.0352913
-269.1125141
-269.189737
-269.2669598
-269.3441827
-269.4214056
-269.4986284
-269.5758513
-269.6530741
-269.730297
-269.8075199
-269.8847427
-269.9619656
-270.0391884
-270.1164113
-270.1936342
-270.270857
-270.3480799
-270.4253027
-270.5025256
-270.5797484
-270.6569713
-270.7341942
-270.811417
-270.8886399
-270.9658627
-271.0430856
-271.1203085
-271.1975313
-271.2747542
-271.351977
-271.4291999
-271.5064228
-271.5836456
-271.6608685
-271.7380913
-271.8153142
-271.8925371
-271.9697599
-272.0469828
-272.1242056
-272.2014285
-272.2786514
-272.3558742
-272.4330971
-272.5103199
-272.5875428
-272.6647657
-272.7419885
-272.8192114
-272.8964342
-272.9736571
-273.05088
-273.1281028
-273.2053257
-273.2825485
-273.3597714
-273.4369943
-273.5142171
-273.59144
-273.6686628
-273.7458857
-273.8231086
-273.9003314
-273.9775543
-274.0547771
-274.132
-274.2092229
-274.2864457
-274.3636686
-274.4408914
-274.5181143
-274.5953372
-274.67256
-274.7497829
-274.8270057
-274.9042286
-274.9814515
-275.0586743
-275.1358972
-275.21312
-275.2903429
-275.3675658
-275.4447886
-275.5220115
-275.5992343
-275.6764572
-275.7536801
-275.8309029
-275.9081258
-275.9853486
-276.0625715
-276.1397943
-276.2170172
-276.2942401
-276.3714629
-276.4486858
-276.5259086
-276.6031315
-276.6803544
-276.7575772
-276.8348001
-276.9120229
-276.9892458
-277.0664687
-277.1436915
-277.2209144
-277.2981372
-277.3753601
-277.452583
-277.5298058
-277.6070287
-277.6842515
-277.7614744
-277.8386973
-277.9159201
-277.993143
-278.0703658
-278.1475887
-278.2248116
-278.3020344
-278.3792573
-278.4564801
-278.533703
-278.6109259
-278.6881487
-278.7653716
-278.8425944
-278.9198173
-278.9970402
-279.074263
-279.1514859
-279.2287087
-279.3059316
-279.3831545
-279.4603773
-279.5376002
-279.614823
-279.6920459
-279.7692688
-279.8464916
-279.9237145
-280.0009373
-280.0781602
-280.1553831
-280.2326059
-280.3098288
-280.3870516
-280.4642745
-280.5414974
-280.6187202
-280.6959431
-280.7731659
-280.8503888
-280.9276117
-281.0048345
-281.0820574
-281.1592802
-281.2365031
-281.3137259
-281.3909488
-281.4681717
-281.5453945
-281.6226174
-281.6998402
-281.7770631
-281.854286
-281.9315088
-282.0087317
-282.0859545
-282.1631774
-282.2404003
-282.3176231
-282.394846
-282.4720688
-282.5492917
-282.6265146
-282.7037374
-282.7809603
-282.8581831
-282.935406
-283.0126289
-283.0898517
-283.1670746
-283.2442974
-283.3215203
-283.3987432
-283.475966
-283.5531889
-283.6304117
-283.7076346
-283.7848575
-283.8620803
-283.9393032
-284.016526
-284.0937489
-284.1709718
-284.2481946
-284.3254175
-284.4026403
-284.4798632
-284.5570861
-284.6343089
-284.7115318
-284.7887546
-284.8659775
-284.9432004
-285.0204232
-285.0976461
-285.1748689
-285.2520918
-285.3293147
-285.4065375
-285.4837604
-285.5609832
-285.6382061
-285.715429
-285.7926518
-285.8698747
-285.9470975
-286.0243204
-286.1015433
-286.1787661
-286.255989
-286.3332118
-286.4104347
-286.4876575
-286.5648804
-286.6421033
-286.7193261
-286.796549
-286.8737718
-286.9509947
-287.0282176
-287.1054404
-287.1826633
-287.2598861
-287.337109
-287.4143319
-287.4915547
-287.5687776
-287.6460004
-287.7232233
-287.8004462
-287.877669
-287.9548919
-288.0321147
-288.1093376
-288.1865605
-288.2637833
-288.3410062
-288.418229
-288.4954519
-288.5726748
-288.6498976
-288.7271205
-288.8043433
-288.8815662
-288.9587891
-289.0360119
-289.1132348
-289.1904576
-289.2676805
-289.3449034
-289.4221262
-289.4993491
-289.5765719
-289.6537948
-289.7310177
-289.8082405
-289.8854634
-289.9626862
-290.0399091
-290.117132
-290.1943548
-290.2715777
-290.3488005
-290.4260234
-290.5032463
-290.5804691
-290.657692
-290.7349148
-290.8121377
-290.8893606
-290.9665834
-291.0438063
-291.1210291
-291.198252
-291.2754749
-291.3526977
-291.4299206
-291.5071434
-291.5843663
-291.6615892
-291.738812
-291.8160349
-291.8932577
-291.9704806
-292.0477034
-292.1249263
-292.2021492
-292.279372
-292.3565949
-292.4338177
-292.5110406
-292.5882635
-292.6654863
-292.7427092
-292.819932
-292.8971549
-292.9743778
-293.0516006
-293.1288235
-293.2060463
-293.2832692
-293.3604921
-293.4377149
-293.5149378
-293.5921606
-293.6693835
-293.7466064
-293.8238292
-293.9010521
-293.9782749
-294.0554978
-294.1327207
-294.2099435
-294.2871664
-294.3643892
-294.4416121
-294.518835
-294.5960578
-294.6732807
-294.7505035
-294.8277264
-294.9049493
-294.9821721
-295.059395
-295.1366178
-295.2138407
-295.2910636
-295.3682864
-295.4455093
-295.5227321
-295.599955
-295.6771779
-295.7544007
-295.8316236
-295.9088464
-295.9860693
-296.0632922
-296.140515
-296.2177379
-296.2949607
-296.3721836
-296.4494065
-296.5266293
-296.6038522
-296.681075
-296.7582979
-296.8355208
-296.9127436
-296.9899665
-297.0671893
-297.1444122
-297.221635
-297.2988579
-297.3760808
-297.4533036
-297.5305265
-297.6077493
-297.6849722
-297.7621951
-297.8394179
-297.9166408
-297.9938636
-298.0710865
-298.1483094
-298.2255322
-298.3027551
-298.3799779
-298.4572008
-298.5344237
-298.6116465
-298.6888694
-298.7660922
-298.8433151
-298.920538
-298.9977608
-299.0749837
-299.1522065
-299.2294294
-299.3066523
-299.3838751
-299.461098
-299.5383208
-299.6155437
-299.6927666
-299.7699894
-299.8472123
-299.9244351
-300.001658
-300.0788809
-300.1561037
-300.2333266
-300.3105494
-300.3877723
-300.4649952
-300.542218
-300.6194409
-300.6966637
-300.7738866
-300.8511095
-300.9283323
-301.0055552
-301.082778
-301.1600009
-301.2372238
-301.3144466
-301.3916695
-301.4688923
-301.5461152
-301.6233381
-301.7005609
-301.7777838
-301.8550066
-301.9322295
-302.0094524
-302.0866752
-302.1638981
-302.2411209
-302.3183438
-302.3955667
-302.4727895
-302.5500124
-302.6272352
-302.7044581
-302.7816809
-302.8589038
-302.9361267
-303.0133495
-303.0905724
-303.1677952
-303.2450181
-303.322241
-303.3994638
-303.4766867
-303.5539095
-303.6311324
-303.7083553
-303.7855781
-303.862801
-303.9400238
-304.0172467
-304.0944696
-304.1716924
-304.2489153
-304.3261381
-304.403361
-304.4805839
-304.5578067
-304.6350296
-304.7122524
-304.7894753
-304.8666982
-304.943921
-305.0211439
-305.0983667
-305.1755896
-305.2528125
-305.3300353
-305.4072582
-305.484481
-305.5617039
-305.6389268
-305.7161496
-305.7933725
-305.8705953
-305.9478182
-306.0250411
-306.1022639
-306.1794868
-306.2567096
-306.3339325
-306.4111554
-306.4883782
-306.5656011
-306.6428239
-306.7200468
-306.7972697
-306.8744925
-306.9517154
-307.0289382
-307.1061611
-307.183384
-307.2606068
-307.3378297
-307.4150525
-307.4922754
-307.5694983
-307.6467211
-307.723944
-307.8011668
-307.8783897
-307.9556125
-308.0328354
-308.1100583
-308.1872811
-308.264504
-308.3417268
-308.4189497
-308.4961726
-308.5733954
-308.6506183
-308.7278411
-308.805064
-308.8822869
-308.9595097
-309.0367326
-309.1139554
-309.1911783
-309.2684012
-309.345624
-309.4228469
-309.5000697
-309.5772926
-309.6545155
-309.7317383
-309.8089612
-309.886184
-309.9634069
-310.0406298
-310.1178526
-310.1950755
-310.2722983
-310.3495212
-310.4267441
-310.5039669
-310.5811898
-310.6584126
-310.7356355
-310.8128584
-310.8900812
-310.9673041
-311.0445269
-311.1217498
-311.1989727
-311.2761955
-311.3534184
-311.4306412
-311.5078641
-311.585087
-311.6623098
-311.7395327
-311.8167555
-311.8939784
-311.9712013
-312.0484241
-312.125647
-312.2028698
-312.2800927
-312.3573156
-312.4345384
-312.5117613
-312.5889841
-312.666207
-312.7434299
-312.8206527
-312.8978756
-312.9750984
-313.0523213
-313.1295442
-313.206767
-313.2839899
-313.3612127
-313.4384356
-313.5156584
-313.5928813
-313.6701042
-313.747327
-313.8245499
-313.9017727
-313.9789956
-314.0562185
-314.1334413
-314.2106642
-314.287887
-314.3651099
-314.4423328
-314.5195556
-314.5967785
-314.6740013
-314.7512242
-314.8284471
-314.9056699
-314.9828928
-315.0601156
-315.1373385
-315.2145614
-315.2917842
-315.3690071
-315.4462299
-315.5234528
-315.6006757
-315.6778985
-315.7551214
-315.8323442
-315.9095671
-315.98679
-316.0640128
-316.1412357
-316.2184585
-316.2956814
-316.3729043
-316.4501271
-316.52735
-316.6045728
-316.6817957
-316.7590186
-316.8362414
-316.9134643
-316.9906871
-317.06791
-317.1451329
-317.2223557
-317.2995786
-317.3768014
-317.4540243
-317.5312472
-317.60847
-317.6856929
-317.7629157
-317.8401386
-317.9173615
-317.9945843
-318.0718072
-318.14903
-318.2262529
-318.3034758
-318.3806986
-318.4579215
-318.5351443
-318.6123672
-318.68959
-318.7668129
-318.8440358
-318.9212586
-318.9984815
-319.0757043
-319.1529272
-319.2301501
-319.3073729
-319.3845958
-319.4618186
-319.5390415
-319.6162644
-319.6934872
-319.7707101
-319.8479329
-319.9251558
-320.0023787
-320.0796015
-320.1568244
-320.2340472
-320.3112701
-320.388493
-320.4657158
-320.5429387
-320.6201615
-320.6973844
-320.7746073
-320.8518301
-320.929053
-321.0062758
-321.0834987
-321.1607216
-321.2379444
-321.3151673
-321.3923901
-321.469613
-321.5468359
-321.6240587
-321.7012816
-321.7785044
-321.8557273
-321.9329502
-322.010173
-322.0873959
-322.1646187
-322.2418416
-322.3190645
-322.3962873
-322.4735102
-322.550733
-322.6279559
-322.7051788
-322.7824016
-322.8596245
-322.9368473
-323.0140702
-323.0912931
-323.1685159
-323.2457388
-323.3229616
-323.4001845
-323.4774074
-323.5546302
-323.6318531
-323.7090759
-323.7862988
-323.8635216
-323.9407445
-324.0179674
-324.0951902
-324.1724131
-324.2496359
-324.3268588
-324.4040817
-324.4813045
-324.5585274
-324.6357502
-324.7129731
-324.790196
-324.8674188
-324.9446417
-325.0218645
-325.0990874
-325.1763103
-325.2535331
-325.330756
-325.4079788
-325.4852017
-325.5624246
-325.6396474
-325.7168703
-325.7940931
-325.871316
-325.9485389
-326.0257617
-326.1029846
-326.1802074
-326.2574303
-326.3346532
-326.411876
-326.4890989
-326.5663217
-326.6435446
-326.7207675
-326.7979903
-326.8752132
-326.952436
-327.0296589
-327.1068818
-327.1841046
-327.2613275
-327.3385503
-327.4157732
-327.4929961
-327.5702189
-327.6474418
-327.7246646
-327.8018875
-327.8791104
-327.9563332
-328.0335561
-328.1107789
-328.1880018
-328.2652247
-328.3424475
-328.4196704
-328.4968932
-328.5741161
-328.651339
-328.7285618
-328.8057847
-328.8830075
-328.9602304
-329.0374533
-329.1146761
-329.191899
-329.2691218
-329.3463447
-329.4235675
-329.5007904
-329.5780133
-329.6552361
-329.732459
-329.8096818
-329.8869047
-329.9641276
-330.0413504
-330.1185733
-330.1957961
-330.273019
-330.3502419
-330.4274647
-330.5046876
-330.5819104
-330.6591333
-330.7363562
-330.813579
-330.8908019
-330.9680247
-331.0452476
-331.1224705
-331.1996933
-331.2769162
-331.354139
-331.4313619
-331.5085848
-331.5858076
-331.6630305
-331.7402533
-331.8174762
-331.8946991
-331.9719219
-332.0491448
-332.1263676
-332.2035905
-332.2808134
-332.3580362
-332.4352591
-332.5124819
-332.5897048
-332.6669277
-332.7441505
-332.8213734
-332.8985962
-332.9758191
-333.053042
-333.1302648
-333.2074877
-333.2847105
-333.3619334
-333.4391563
-333.5163791
-333.593602
-333.6708248
-333.7480477
-333.8252706
-333.9024934
-333.9797163
-334.0569391
-334.134162
-334.2113849
-334.2886077
-334.3658306
-334.4430534
-334.5202763
-334.5974991
-334.674722
-334.7519449
-334.8291677
-334.9063906
-334.9836134
-335.0608363
-335.1380592
-335.215282
-335.2925049
-335.3697277
-335.4469506
-335.5241735
-335.6013963
-335.6786192
-335.755842
-335.8330649
-335.9102878
-335.9875106
-336.0647335
-336.1419563
-336.2191792
-336.2964021
-336.3736249
-336.4508478
-336.5280706
-336.6052935
-336.6825164
-336.7597392
-336.8369621
-336.9141849
-336.9914078
-337.0686307
-337.1458535
-337.2230764
-337.3002992
-337.3775221
-337.454745
-337.5319678
-337.6091907
-337.6864135
-337.7636364
-337.8408593
-337.9180821
-337.995305
-338.0725278
-338.1497507
-338.2269736
-338.3041964
-338.3814193
-338.4586421
-338.535865
-338.6130879
-338.6903107
-338.7675336
-338.8447564
-338.9219793
-338.9992022
-339.076425
-339.1536479
-339.2308707
-339.3080936
-339.3853165
-339.4625393
-339.5397622
-339.616985
-339.6942079
-339.7714308
-339.8486536
-339.9258765
-340.0030993
-340.0803222
-340.157545
-340.2347679
-340.3119908
-340.3892136
-340.4664365
-340.5436593
-340.6208822
-340.6981051
-340.7753279
-340.8525508
-340.9297736
-341.0069965
-341.0842194
-341.1614422
-341.2386651
-341.3158879
-341.3931108
-341.4703337
-341.5475565
-341.6247794
-341.7020022
-341.7792251
-341.856448
-341.9336708
-342.0108937
-342.0881165
-342.1653394
-342.2425623
-342.3197851
-342.397008
-342.4742308
-342.5514537
-342.6286766
-342.7058994
-342.7831223
-342.8603451
-342.937568
-343.0147909
-343.0920137
-343.1692366
-343.2464594
-343.3236823
-343.4009052
-343.478128
-343.5553509
-343.6325737
-343.7097966
-343.7870195
-343.8642423
-343.9414652
-344.018688
-344.0959109
-344.1731338
-344.2503566
-344.3275795
-344.4048023
-344.4820252
-344.5592481
-344.6364709
-344.7136938
-344.7909166
-344.8681395
-344.9453624
-345.0225852
-345.0998081
-345.1770309
-345.2542538
-345.3314766
-345.4086995
-345.4859224
-345.5631452
-345.6403681
-345.7175909
-345.7948138
-345.8720367
-345.9492595
-346.0264824
-346.1037052
-346.1809281
-346.258151
-346.3353738
-346.4125967
-346.4898195
-346.5670424
-346.6442653
-346.7214881
-346.798711
-346.8759338
-346.9531567
-347.0303796
-347.1076024
-347.1848253
-347.2620481
-347.339271
-347.4164939
-347.4937167
-347.5709396
-347.6481624
-347.7253853
-347.8026082
-347.879831
-347.9570539
-348.0342767
-348.1114996
-348.1887225
-348.2659453
-348.3431682
-348.420391
-348.4976139
-348.5748368
-348.6520596
-348.7292825
-348.8065053
-348.8837282
-348.9609511
-349.0381739
-349.1153968
-349.1926196
-349.2698425
-349.3470654
-349.4242882
-349.5015111
-349.5787339
-349.6559568
-349.7331797
-349.8104025
-349.8876254
-349.9648482
-350.0420711
-350.119294
-350.1965168
-350.2737397
-350.3509625
-350.4281854
-350.5054082
-350.5826311
-350.659854
-350.7370768
-350.8142997
-350.8915225
-350.9687454
-351.0459683
-351.1231911
-351.200414
-351.2776368
-351.3548597
-351.4320826
-351.5093054
-351.5865283
-351.6637511
-351.740974
-351.8181969
-351.8954197
-351.9726426
-352.0498654
-352.1270883
-352.2043112
-352.281534
-352.3587569
-352.4359797
-352.5132026
-352.5904255
-352.6676483
-352.7448712
-352.822094
-352.8993169
-352.9765398
-353.0537626
-353.1309855
-353.2082083
-353.2854312
-353.3626541
-353.4398769
-353.5170998
-353.5943226
-353.6715455
-353.7487684
-353.8259912
-353.9032141
-353.9804369
-354.0576598
-354.1348827
-354.2121055
-354.2893284
-354.3665512
-354.4437741
-354.520997
-354.5982198
-354.6754427
-354.7526655
-354.8298884
-354.9071113
-354.9843341
-355.061557
-355.1387798
-355.2160027
-355.2932256
-355.3704484
-355.4476713
-355.5248941
-355.602117
-355.6793399
-355.7565627
-355.8337856
-355.9110084
-355.9882313
-356.0654541
-356.142677
-356.2198999
-356.2971227
-356.3743456
-356.4515684
-356.5287913
-356.6060142
-356.683237
-356.7604599
-356.8376827
-356.9149056
-356.9921285
-357.0693513
-357.1465742
-357.223797
-357.3010199
-357.3782428
-357.4554656
-357.5326885
-357.6099113
-357.6871342
-357.7643571
-357.8415799
-357.9188028
-357.9960256
-358.0732485
-358.1504714
-358.2276942
-358.3049171
-358.3821399
-358.4593628
-358.5365857
-358.6138085
-358.6910314
-358.7682542
-358.8454771
-358.9227
-358.9999228
-359.0771457
-359.1543685
-359.2315914
-359.3088143
-359.3860371
-359.46326
-359.5404828
-359.6177057
-359.6949286
-359.7721514
-359.8493743
-359.9265971
-360.00382
-360.0810429
-360.1582657
-360.2354886
-360.3127114
-360.3899343
-360.4671572
-360.54438
-360.6216029
-360.6988257
-360.7760486
-360.8532715
-360.9304943
-361.0077172
-361.08494
-361.1621629
-361.2393857
-361.3166086
-361.3938315
-361.4710543
-361.5482772
-361.6255
-361.7027229
-361.7799458
-361.8571686
-361.9343915
-362.0116143
-362.0888372
-362.1660601
-362.2432829
-362.3205058
-362.3977286
-362.4749515
-362.5521744
-362.6293972
-362.7066201
-362.7838429
-362.8610658
-362.9382887
-363.0155115
-363.0927344
-363.1699572
-363.2471801
-363.324403
-363.4016258
-363.4788487
-363.5560715
-363.6332944
-363.7105173
-363.7877401
-363.864963
-363.9421858
-364.0194087
-364.0966316
-364.1738544
-364.2510773
-364.3283001
-364.405523
-364.4827459
-364.5599687
-364.6371916
-364.7144144
-364.7916373
-364.8688602
-364.946083
-365.0233059
-365.1005287
-365.1777516
-365.2549745
-365.3321973
-365.4094202
-365.486643
-365.5638659
-365.6410888
-365.7183116
-365.7955345
-365.8727573
-365.9499802
-366.0272031
-366.1044259
-366.1816488
-366.2588716
-366.3360945
-366.4133174
-366.4905402
-366.5677631
-366.6449859
-366.7222088
-366.7994316
-366.8766545
-366.9538774
-367.0311002
-367.1083231
-367.1855459
-367.2627688
-367.3399917
-367.4172145
-367.4944374
-367.5716602
-367.6488831
-367.726106
-367.8033288
-367.8805517
-367.9577745
-368.0349974
-368.1122203
-368.1894431
-368.266666
-368.3438888
-368.4211117
-368.4983346
-368.5755574
-368.6527803
-368.7300031
-368.807226
-368.8844489
-368.9616717
-369.0388946
-369.1161174
-369.1933403
-369.2705632
-369.347786
-369.4250089
-369.5022317
-369.5794546
-369.6566775
-369.7339003
-369.8111232
-369.888346
-369.9655689
-370.0427918
-370.1200146
-370.1972375
-370.2744603
-370.3516832
-370.4289061
-370.5061289
-370.5833518
-370.6605746
-370.7377975
-370.8150204
-370.8922432
-370.9694661
-371.0466889
-371.1239118
-371.2011347
-371.2783575
-371.3555804
-371.4328032
-371.5100261
-371.587249
-371.6644718
-371.7416947
-371.8189175
-371.8961404
-371.9733632
-372.0505861
-372.127809
-372.2050318
-372.2822547
-372.3594775
-372.4367004
-372.5139233
-372.5911461
-372.668369
-372.7455918
-372.8228147
-372.9000376
-372.9772604
-373.0544833
-373.1317061
-373.208929
-373.2861519
-373.3633747
-373.4405976
-373.5178204
-373.5950433
-373.6722662
-373.749489
-373.8267119
-373.9039347
-373.9811576
-374.0583805
-374.1356033
-374.2128262
-374.290049
-374.3672719
-374.4444948
-374.5217176
-374.5989405
-374.6761633
-374.7533862
-374.8306091
-374.9078319
-374.9850548
-375.0622776
-375.1395005
-375.2167234
-375.2939462
-375.3711691
-375.4483919
-375.5256148
-375.6028377
-375.6800605
-375.7572834
-375.8345062
-375.9117291
-375.988952
-376.0661748
-376.1433977
-376.2206205
-376.2978434
-376.3750663
-376.4522891
-376.529512
-376.6067348
-376.6839577
-376.7611806
-376.8384034
-376.9156263
-376.9928491
-377.070072
-377.1472949
-377.2245177
-377.3017406
-377.3789634
-377.4561863
-377.5334091
-377.610632
-377.6878549
-377.7650777
-377.8423006
-377.9195234
-377.9967463
-378.0739692
-378.151192
-378.2284149
-378.3056377
-378.3828606
-378.4600835
-378.5373063
-378.6145292
-378.691752
-378.7689749
-378.8461978
-378.9234206
-379.0006435
-379.0778663
-379.1550892
-379.2323121
-379.3095349
-379.3867578
-379.4639806
-379.5412035
-379.6184264
-379.6956492
-379.7728721
-379.8500949
-379.9273178
-380.0045407
-380.0817635
-380.1589864
-380.2362092
-380.3134321
-380.390655
-380.4678778
-380.5451007
-380.6223235
-380.6995464
-380.7767693
-380.8539921
-380.931215
-381.0084378
-381.0856607
-381.1628836
-381.2401064
-381.3173293
-381.3945521
-381.471775
-381.5489979
-381.6262207
-381.7034436
-381.7806664
-381.8578893
-381.9351122
-382.012335
-382.0895579
-382.1667807
-382.2440036
-382.3212265
-382.3984493
-382.4756722
-382.552895
-382.6301179
-382.7073407
-382.7845636
-382.8617865
-382.9390093
-383.0162322
-383.093455
-383.1706779
-383.2479008
-383.3251236
-383.4023465
-383.4795693
-383.5567922
-383.6340151
-383.7112379
-383.7884608
-383.8656836
-383.9429065
-384.0201294
-384.0973522
-384.1745751
-384.2517979
-384.3290208
-384.4062437
-384.4834665
-384.5606894
-384.6379122
-384.7151351
-384.792358
-384.8695808
-384.9468037
-385.0240265
-385.1012494
-385.1784723
-385.2556951
-385.332918
-385.4101408
-385.4873637
-385.5645866
-385.6418094
-385.7190323
-385.7962551
-385.873478
-385.9507009
-386.0279237
-386.1051466
-386.1823694
-386.2595923
-386.3368152
-386.414038
-386.4912609
-386.5684837
-386.6457066
-386.7229295
-386.8001523
-386.8773752
-386.954598
-387.0318209
-387.1090438
-387.1862666
-387.2634895
-387.3407123
-387.4179352
-387.4951581
-387.5723809
-387.6496038
-387.7268266
-387.8040495
-387.8812723
-387.9584952
-388.0357181
-388.1129409
-388.1901638
-388.2673866
-388.3446095
-388.4218324
-388.4990552
-388.5762781
-388.6535009
-388.7307238
-388.8079467
-388.8851695
-388.9623924
-389.0396152
-389.1168381
-389.194061
-389.2712838
-389.3485067
-389.4257295
-389.5029524
-389.5801753
-389.6573981
-389.734621
-389.8118438
-389.8890667
-389.9662896
-390.0435124
-390.1207353
-390.1979581
-390.275181
-390.3524039
-390.4296267
-390.5068496
-390.5840724
-390.6612953
-390.7385182
-390.815741
-390.8929639
-390.9701867
-391.0474096
-391.1246325
-391.2018553
-391.2790782
-391.356301
-391.4335239
-391.5107468
-391.5879696
-391.6651925
-391.7424153
-391.8196382
-391.8968611
-391.9740839
-392.0513068
-392.1285296
-392.2057525
-392.2829754
-392.3601982
-392.4374211
-392.5146439
-392.5918668
-392.6690897
-392.7463125
-392.8235354
-392.9007582
-392.9779811
-393.055204
-393.1324268
-393.2096497
-393.2868725
-393.3640954
-393.4413182
-393.5185411
-393.595764
-393.6729868
-393.7502097
-393.8274325
-393.9046554
-393.9818783
-394.0591011
-394.136324
-394.2135468
-394.2907697
-394.3679926
-394.4452154
-394.5224383
-394.5996611
-394.676884
-394.7541069
-394.8313297
-394.9085526
-394.9857754
-395.0629983
-395.1402212
-395.217444
-395.2946669
-395.3718897
-395.4491126
-395.5263355
-395.6035583
-395.6807812
-395.758004
-395.8352269
-395.9124498
-395.9896726
-396.0668955
-396.1441183
-396.2213412
-396.2985641
-396.3757869
-396.4530098
-396.5302326
-396.6074555
-396.6846784
-396.7619012
-396.8391241
-396.9163469
-396.9935698
-397.0707927
-397.1480155
-397.2252384
-397.3024612
-397.3796841
-397.456907
-397.5341298
-397.6113527
-397.6885755
-397.7657984
-397.8430213
-397.9202441
-397.997467
-398.0746898
-398.1519127
-398.2291356
-398.3063584
-398.3835813
-398.4608041
-398.538027
-398.6152498
-398.6924727
-398.7696956
-398.8469184
-398.9241413
-399.0013641
-399.078587
-399.1558099
-399.2330327
-399.3102556
-399.3874784
-399.4647013
-399.5419242
-399.619147
-399.6963699
-399.7735927
-399.8508156
-399.9280385
-400.0052613
-400.0824842
-400.159707
-400.2369299
-400.3141528
-400.3913756
-400.4685985
-400.5458213
-400.6230442
-400.7002671
-400.7774899
-400.8547128
-400.9319356
-401.0091585
-401.0863814
-401.1636042
-401.2408271
-401.3180499
-401.3952728
-401.4724957
-401.5497185
-401.6269414
-401.7041642
-401.7813871
-401.85861
-401.9358328
-402.0130557
-402.0902785
-402.1675014
-402.2447243
-402.3219471
-402.39917
-402.4763928
-402.5536157
-402.6308386
-402.7080614
-402.7852843
-402.8625071
-402.93973
-403.0169529
-403.0941757
-403.1713986
-403.2486214
-403.3258443
-403.4030672
-403.48029
-403.5575129
-403.6347357
-403.7119586
-403.7891815
-403.8664043
-403.9436272
-404.02085
-404.0980729
-404.1752957
-404.2525186
-404.3297415
-404.4069643
-404.4841872
-404.56141
-404.6386329
-404.7158558
-404.7930786
-404.8703015
-404.9475243
-405.0247472
-405.1019701
-405.1791929
-405.2564158
-405.3336386
-405.4108615
-405.4880844
-405.5653072
-405.6425301
-405.7197529
-405.7969758
-405.8741987
-405.9514215
-406.0286444
-406.1058672
-406.1830901
-406.260313
-406.3375358
-406.4147587
-406.4919815
-406.5692044
-406.6464273
-406.7236501
-406.800873
-406.8780958
-406.9553187
-407.0325416
-407.1097644
-407.1869873
-407.2642101
-407.341433
-407.4186559
-407.4958787
-407.5731016
-407.6503244
-407.7275473
-407.8047702
-407.881993
-407.9592159
-408.0364387
-408.1136616
-408.1908845
-408.2681073
-408.3453302
-408.422553
-408.4997759
-408.5769988
-408.6542216
-408.7314445
-408.8086673
-408.8858902
-408.9631131
-409.0403359
-409.1175588
-409.1947816
-409.2720045
-409.3492273
-409.4264502
-409.5036731
-409.5808959
-409.6581188
-409.7353416
-409.8125645
-409.8897874
-409.9670102
-410.0442331
-410.1214559
-410.1986788
-410.2759017
-410.3531245
-410.4303474
-410.5075702
-410.5847931
-410.662016
-410.7392388
-410.8164617
-410.8936845
-410.9709074
-411.0481303
-411.1253531
-411.202576
-411.2797988
-411.3570217
-411.4342446
-411.5114674
-411.5886903
-411.6659131
-411.743136
-411.8203589
-411.8975817
-411.9748046
-412.0520274
-412.1292503
-412.2064732
-412.283696
-412.3609189
-412.4381417
-412.5153646
-412.5925875
-412.6698103
-412.7470332
-412.824256
-412.9014789
-412.9787018
-413.0559246
-413.1331475
-413.2103703
-413.2875932
-413.3648161
-413.4420389
-413.5192618
-413.5964846
-413.6737075
-413.7509304
-413.8281532
-413.9053761
-413.9825989
-414.0598218
-414.1370447
-414.2142675
-414.2914904
-414.3687132
-414.4459361
-414.523159
-414.6003818
-414.6776047
-414.7548275
-414.8320504
-414.9092732
-414.9864961
-415.063719
-415.1409418
-415.2181647
-415.2953875
-415.3726104
-415.4498333
-415.5270561
-415.604279
-415.6815018
-415.7587247
-415.8359476
-415.9131704
-415.9903933
-416.0676161
-416.144839
-416.2220619
-416.2992847
-416.3765076
-416.4537304
-416.5309533
-416.6081762
-416.685399
-416.7626219
-416.8398447
-416.9170676
-416.9942905
-417.0715133
-417.1487362
-417.225959
-417.3031819
-417.3804048
-417.4576276
-417.5348505
-417.6120733
-417.6892962
-417.7665191
-417.8437419
-417.9209648
-417.9981876
-418.0754105
-418.1526334
-418.2298562
-418.3070791
-418.3843019
-418.4615248
-418.5387477
-418.6159705
-418.6931934
-418.7704162
-418.8476391
-418.924862
-419.0020848
-419.0793077
-419.1565305
-419.2337534
-419.3109763
-419.3881991
-419.465422
-419.5426448
-419.6198677
-419.6970906
-419.7743134
-419.8515363
-419.9287591
-420.005982
-420.0832048
-420.1604277
-420.2376506
-420.3148734
-420.3920963
-420.4693191
-420.546542
-420.6237649
-420.7009877
-420.7782106
-420.8554334
-420.9326563
-421.0098792
-421.087102
-421.1643249
-421.2415477
-421.3187706
-421.3959935
-421.4732163
-421.5504392
-421.627662
-421.7048849
-421.7821078
-421.8593306
-421.9365535
-422.0137763
-422.0909992
-422.1682221
-422.2454449
-422.3226678
-422.3998906
-422.4771135
-422.5543364
-422.6315592
-422.7087821
-422.7860049
-422.8632278
-422.9404507
-423.0176735
-423.0948964
-423.1721192
-423.2493421
-423.326565
-423.4037878
-423.4810107
-423.5582335
-423.6354564
-423.7126793
-423.7899021
-423.867125
-423.9443478
-424.0215707
-424.0987936
-424.1760164
-424.2532393
-424.3304621
-424.407685
-424.4849079
-424.5621307
-424.6393536
-424.7165764
-424.7937993
-424.8710222
-424.948245
-425.0254679
-425.1026907
-425.1799136
-425.2571364
-425.3343593
-425.4115822
-425.488805
-425.5660279
-425.6432507
-425.7204736
-425.7976965
-425.8749193
-425.9521422
-426.029365
-426.1065879
-426.1838108
-426.2610336
-426.3382565
-426.4154793
-426.4927022
-426.5699251
-426.6471479
-426.7243708
-426.8015936
-426.8788165
-426.9560394
-427.0332622
-427.1104851
-427.1877079
-427.2649308
-427.3421537
-427.4193765
-427.4965994
-427.5738222
-427.6510451
-427.728268
-427.8054908
-427.8827137
-427.9599365
-428.0371594
-428.1143823
-428.1916051
-428.268828
-428.3460508
-428.4232737
-428.5004966
-428.5777194
-428.6549423
-428.7321651
-428.809388
-428.8866109
-428.9638337
-429.0410566
-429.1182794
-429.1955023
-429.2727252
-429.349948
-429.4271709
-429.5043937
-429.5816166
-429.6588395
-429.7360623
-429.8132852
-429.890508
-429.9677309
-430.0449538
-430.1221766
-430.1993995
-430.2766223
-430.3538452
-430.4310681
-430.5082909
-430.5855138
-430.6627366
-430.7399595
-430.8171823
-430.8944052
-430.9716281
-431.0488509
-431.1260738
-431.2032966
-431.2805195
-431.3577424
-431.4349652
-431.5121881
-431.5894109
-431.6666338
-431.7438567
-431.8210795
-431.8983024
-431.9755252
-432.0527481
-432.129971
-432.2071938
-432.2844167
-432.3616395
-432.4388624
-432.5160853
-432.5933081
-432.670531
-432.7477538
-432.8249767
-432.9021996
-432.9794224
-433.0566453
-433.1338681
-433.211091
-433.2883139
-433.3655367
-433.4427596
-433.5199824
-433.5972053
-433.6744282
-433.751651
-433.8288739
-433.9060967
-433.9833196
-434.0605425
-434.1377653
-434.2149882
-434.292211
-434.3694339
-434.4466568
-434.5238796
-434.6011025
-434.6783253
-434.7555482
-434.8327711
-434.9099939
-434.9872168
-435.0644396
-435.1416625
-435.2188854
-435.2961082
-435.3733311
-435.4505539
-435.5277768
-435.6049997
-435.6822225
-435.7594454
-435.8366682
-435.9138911
-435.9911139
-436.0683368
-436.1455597
-436.2227825
-436.3000054
-436.3772282
-436.4544511
-436.531674
-436.6088968
-436.6861197
-436.7633425
-436.8405654
-436.9177883
-436.9950111
-437.072234
-437.1494568
-437.2266797
-437.3039026
-437.3811254
-437.4583483
-437.5355711
-437.612794
-437.6900169
-437.7672397
-437.8444626
-437.9216854
-437.9989083
-438.0761312
-438.153354
-438.2305769
-438.3077997
-438.3850226
-438.4622455
-438.5394683
-438.6166912
-438.693914
-438.7711369
-438.8483598
-438.9255826
-439.0028055
-439.0800283
-439.1572512
-439.2344741
-439.3116969
-439.3889198
-439.4661426
-439.5433655
-439.6205884
-439.6978112
-439.7750341
-439.8522569
-439.9294798
-440.0067027
-440.0839255
-440.1611484
-440.2383712
-440.3155941
-440.392817
-440.4700398
-440.5472627
-440.6244855
-440.7017084
-440.7789313
-440.8561541
-440.933377
-441.0105998
-441.0878227
-441.1650456
-441.2422684
-441.3194913
-441.3967141
-441.473937
-441.5511598
-441.6283827
-441.7056056
-441.7828284
-441.8600513
-441.9372741
-442.014497
-442.0917199
-442.1689427
-442.2461656
-442.3233884
-442.4006113
-442.4778342
-442.555057
-442.6322799
-442.7095027
-442.7867256
-442.8639485
-442.9411713
-443.0183942
-443.095617
-443.1728399
-443.2500628
-443.3272856
-443.4045085
-443.4817313
-443.5589542
-443.6361771
-443.7133999
-443.7906228
-443.8678456
-443.9450685
-444.0222914
-444.0995142
-444.1767371
-444.2539599
-444.3311828
-444.4084057
-444.4856285
-444.5628514
-444.6400742
-444.7172971
-444.79452
-444.8717428
-444.9489657
-445.0261885
-445.1034114
-445.1806343
-445.2578571
-445.33508
-445.4123028
-445.4895257
-445.5667486
-445.6439714
-445.7211943
-445.7984171
-445.87564
-445.9528629
-446.0300857
-446.1073086
-446.1845314
-446.2617543
-446.3389772
-446.4162
-446.4934229
-446.5706457
-446.6478686
-446.7250914
-446.8023143
-446.8795372
-446.95676
-447.0339829
-447.1112057
-447.1884286
-447.2656515
-447.3428743
-447.4200972
-447.49732
-447.5745429
-447.6517658
-447.7289886
-447.8062115
-447.8834343
-447.9606572
-448.0378801
-448.1151029
-448.1923258
-448.2695486
-448.3467715
-448.4239944
-448.5012172
-448.5784401
-448.6556629
-448.7328858
-448.8101087
-448.8873315
-448.9645544
-449.0417772
-449.1190001
-449.196223
-449.2734458
-449.3506687
-449.4278915
-449.5051144
-449.5823373
-449.6595601
-449.736783
-449.8140058
-449.8912287
-449.9684516
-450.0456744
-450.1228973
-450.2001201
-450.277343
-450.3545659
-450.4317887
-450.5090116
-450.5862344
-450.6634573
-450.7406802
-450.817903
-450.8951259
-450.9723487
-451.0495716
-451.1267945
-451.2040173
-451.2812402
-451.358463
-451.4356859
-451.5129088
-451.5901316
-451.6673545
-451.7445773
-451.8218002
-451.8990231
-451.9762459
-452.0534688
-452.1306916
-452.2079145
-452.2851373
-452.3623602
-452.4395831
-452.5168059
-452.5940288
-452.6712516
-452.7484745
-452.8256974
-452.9029202
-452.9801431
-453.0573659
-453.1345888
-453.2118117
-453.2890345
-453.3662574
-453.4434802
-453.5207031
-453.597926
-453.6751488
-453.7523717
-453.8295945
-453.9068174
-453.9840403
-454.0612631
-454.138486
-454.2157088
-454.2929317
-454.3701546
-454.4473774
-454.5246003
-454.6018231
-454.679046
-454.7562689
-454.8334917
-454.9107146
-454.9879374
-455.0651603
-455.1423832
-455.219606
-455.2968289
-455.3740517
-455.4512746
-455.5284975
-455.6057203
-455.6829432
-455.760166
-455.8373889
-455.9146118
-455.9918346
-456.0690575
-456.1462803
-456.2235032
-456.3007261
-456.3779489
-456.4551718
-456.5323946
-456.6096175
-456.6868404
-456.7640632
-456.8412861
-456.9185089
-456.9957318
-457.0729547
-457.1501775
-457.2274004
-457.3046232
-457.3818461
-457.4590689
-457.5362918
-457.6135147
-457.6907375
-457.7679604
-457.8451832
-457.9224061
-457.999629
-458.0768518
-458.1540747
-458.2312975
-458.3085204
-458.3857433
-458.4629661
-458.540189
-458.6174118
-458.6946347
-458.7718576
-458.8490804
-458.9263033
-459.0035261
-459.080749
-459.1579719
-459.2351947
-459.3124176
-459.3896404
-459.4668633
-459.5440862
-459.621309
-459.6985319
-459.7757547
-459.8529776
-459.9302005
-460.0074233
-460.0846462
-460.161869
-460.2390919
-460.3163148
-460.3935376
-460.4707605
-460.5479833
-460.6252062
-460.7024291
-460.7796519
-460.8568748
-460.9340976
-461.0113205
-461.0885434
-461.1657662
-461.2429891
-461.3202119
-461.3974348
-461.4746577
-461.5518805
-461.6291034
-461.7063262
-461.7835491
-461.860772
-461.9379948
-462.0152177
-462.0924405
-462.1696634
-462.2468863
-462.3241091
-462.401332
-462.4785548
-462.5557777
-462.6330005
-462.7102234
-462.7874463
-462.8646691
-462.941892
-463.0191148
-463.0963377
-463.1735606
-463.2507834
-463.3280063
-463.4052291
-463.482452
-463.5596749
-463.6368977
-463.7141206
-463.7913434
-463.8685663
-463.9457892
-464.023012
-464.1002349
-464.1774577
-464.2546806
-464.3319035
-464.4091263
-464.4863492
-464.563572
-464.6407949
-464.7180178
-464.7952406
-464.8724635
-464.9496863
-465.0269092
-465.1041321
-465.1813549
-465.2585778
-465.3358006
-465.4130235
-465.4902464
-465.5674692
-465.6446921
-465.7219149
-465.7991378
-465.8763607
-465.9535835
-466.0308064
-466.1080292
-466.1852521
-466.262475
-466.3396978
-466.4169207
-466.4941435
-466.5713664
-466.6485893
-466.7258121
-466.803035
-466.8802578
-466.9574807
-467.0347036
-467.1119264
-467.1891493
-467.2663721
-467.343595
-467.4208179
-467.4980407
-467.5752636
-467.6524864
-467.7297093
-467.8069322
-467.884155
-467.9613779
-468.0386007
-468.1158236
-468.1930464
-468.2702693
-468.3474922
-468.424715
-468.5019379
-468.5791607
-468.6563836
-468.7336065
-468.8108293
-468.8880522
-468.965275
-469.0424979
-469.1197208
-469.1969436
-469.2741665
-469.3513893
-469.4286122
-469.5058351
-469.5830579
-469.6602808
-469.7375036
-469.8147265
-469.8919494
-469.9691722
-470.0463951
-470.1236179
-470.2008408
-470.2780637
-470.3552865
-470.4325094
-470.5097322
-470.5869551
-470.664178
-470.7414008
-470.8186237
-470.8958465
-470.9730694
-471.0502923
-471.1275151
-471.204738
-471.2819608
-471.3591837
-471.4364066
-471.5136294
-471.5908523
-471.6680751
-471.745298
-471.8225209
-471.8997437
-471.9769666
-472.0541894
-472.1314123
-472.2086352
-472.285858
-472.3630809
-472.4403037
-472.5175266
-472.5947495
-472.6719723
-472.7491952
-472.826418
-472.9036409
-472.9808638
-473.0580866
-473.1353095
-473.2125323
-473.2897552
-473.366978
-473.4442009
-473.5214238
-473.5986466
-473.6758695
-473.7530923
-473.8303152
-473.9075381
-473.9847609
-474.0619838
-474.1392066
-474.2164295
-474.2936524
-474.3708752
-474.4480981
-474.5253209
-474.6025438
-474.6797667
-474.7569895
-474.8342124
-474.9114352
-474.9886581
-475.065881
-475.1431038
-475.2203267
-475.2975495
-475.3747724
-475.4519953
-475.5292181
-475.606441
-475.6836638
-475.7608867
-475.8381096
-475.9153324
-475.9925553
-476.0697781
-476.147001
-476.2242239
-476.3014467
-476.3786696
-476.4558924
-476.5331153
-476.6103382
-476.687561
-476.7647839
-476.8420067
-476.9192296
-476.9964525
-477.0736753
-477.1508982
-477.228121
-477.3053439
-477.3825668
-477.4597896
-477.5370125
-477.6142353
-477.6914582
-477.7686811
-477.8459039
-477.9231268
-478.0003496
-478.0775725
-478.1547954
-478.2320182
-478.3092411
-478.3864639
-478.4636868
-478.5409097
-478.6181325
-478.6953554
-478.7725782
-478.8498011
-478.9270239
-479.0042468
-479.0814697
-479.1586925
-479.2359154
-479.3131382
-479.3903611
-479.467584
-479.5448068
-479.6220297
-479.6992525
-479.7764754
-479.8536983
-479.9309211
-480.008144
-480.0853668
-480.1625897
-480.2398126
-480.3170354
-480.3942583
-480.4714811
-480.548704
-480.6259269
-480.7031497
-480.7803726
-480.8575954
-480.9348183
-481.0120412
-481.089264
-481.1664869
-481.2437097
-481.3209326
-481.3981555
-481.4753783
-481.5526012
-481.629824
-481.7070469
-481.7842698
-481.8614926
-481.9387155
-482.0159383
-482.0931612
-482.1703841
-482.2476069
-482.3248298
-482.4020526
-482.4792755
-482.5564984
-482.6337212
-482.7109441
-482.7881669
-482.8653898
-482.9426127
-483.0198355
-483.0970584
-483.1742812
-483.2515041
-483.328727
-483.4059498
-483.4831727
-483.5603955
-483.6376184
-483.7148413
-483.7920641
-483.869287
-483.9465098
-484.0237327
-484.1009555
-484.1781784
-484.2554013
-484.3326241
-484.409847
-484.4870698
-484.5642927
-484.6415156
-484.7187384
-484.7959613
-484.8731841
-484.950407
-485.0276299
-485.1048527
-485.1820756
-485.2592984
-485.3365213
-485.4137442
-485.490967
-485.5681899
-485.6454127
-485.7226356
-485.7998585
-485.8770813
-485.9543042
-486.031527
-486.1087499
-486.1859728
-486.2631956
-486.3404185
-486.4176413
-486.4948642
-486.5720871
-486.6493099
-486.7265328
-486.8037556
-486.8809785
-486.9582014
-487.0354242
-487.1126471
-487.1898699
-487.2670928
-487.3443157
-487.4215385
-487.4987614
-487.5759842
-487.6532071
-487.73043
-487.8076528
-487.8848757
-487.9620985
-488.0393214
-488.1165443
-488.1937671
-488.27099
-488.3482128
-488.4254357
-488.5026586
-488.5798814
-488.6571043
-488.7343271
-488.81155
-488.8887729
-488.9659957
-489.0432186
-489.1204414
-489.1976643
-489.2748871
-489.35211
-489.4293329
-489.5065557
-489.5837786
-489.6610014
-489.7382243
-489.8154472
-489.89267
-489.9698929
-490.0471157
-490.1243386
-490.2015615
-490.2787843
-490.3560072
-490.43323
-490.5104529
-490.5876758
-490.6648986
-490.7421215
-490.8193443
-490.8965672
-490.9737901
-491.0510129
-491.1282358
-491.2054586
-491.2826815
-491.3599044
-491.4371272
-491.5143501
-491.5915729
-491.6687958
-491.7460187
-491.8232415
-491.9004644
-491.9776872
-492.0549101
-492.132133
-492.2093558
-492.2865787
-492.3638015
-492.4410244
-492.5182473
-492.5954701
-492.672693
-492.7499158
-492.8271387
-492.9043616
-492.9815844
-493.0588073
-493.1360301
-493.213253
-493.2904759
-493.3676987
-493.4449216
-493.5221444
-493.5993673
-493.6765902
-493.753813
-493.8310359
-493.9082587
-493.9854816
-494.0627045
-494.1399273
-494.2171502
-494.294373
-494.3715959
-494.4488188
-494.5260416
-494.6032645
-494.6804873
-494.7577102
-494.834933
-494.9121559
-494.9893788
-495.0666016
-495.1438245
-495.2210473
-495.2982702
-495.3754931
-495.4527159
-495.5299388
-495.6071616
-495.6843845
-495.7616074
-495.8388302
-495.9160531
-495.9932759
-496.0704988
-496.1477217
-496.2249445
-496.3021674
-496.3793902
-496.4566131
-496.533836
-496.6110588
-496.6882817
-496.7655045
-496.8427274
-496.9199503
-496.9971731
-497.074396
-497.1516188
-497.2288417
-497.3060646
-497.3832874
-497.4605103
-497.5377331
-497.614956
-497.6921789
-497.7694017
-497.8466246
-497.9238474
-498.0010703
-498.0782932
-498.155516
-498.2327389
-498.3099617
-498.3871846
-498.4644075
-498.5416303
-498.6188532
-498.696076
-498.7732989
-498.8505218
-498.9277446
-499.0049675
-499.0821903
-499.1594132
-499.2366361
-499.3138589
-499.3910818
-499.4683046
-499.5455275
-499.6227504
-499.6999732
-499.7771961
-499.8544189
-499.9316418
-500.0088646
-500.0860875
-500.1633104
-500.2405332
-500.3177561
-500.3949789
-500.4722018
-500.5494247
-500.6266475
-500.7038704
-500.7810932
-500.8583161
-500.935539
-501.0127618
-501.0899847
-501.1672075
-501.2444304
-501.3216533
-501.3988761
-501.476099
-501.5533218
-501.6305447
-501.7077676
-501.7849904
-501.8622133
-501.9394361
-502.016659
-502.0938819
-502.1711047
-502.2483276
-502.3255504
-502.4027733
-502.4799962
-502.557219
-502.6344419
-502.7116647
-502.7888876
-502.8661105
-502.9433333
-503.0205562
-503.097779
-503.1750019
-503.2522248
-503.3294476
-503.4066705
-503.4838933
-503.5611162
-503.6383391
-503.7155619
-503.7927848
-503.8700076
-503.9472305
-504.0244534
-504.1016762
-504.1788991
-504.2561219
-504.3333448
-504.4105677
-504.4877905
-504.5650134
-504.6422362
-504.7194591
-504.796682
-504.8739048
-504.9511277
-505.0283505
-505.1055734
-505.1827963
-505.2600191
-505.337242
-505.4144648
-505.4916877
-505.5689105
-505.6461334
-505.7233563
-505.8005791
-505.877802
-505.9550248
-506.0322477
-506.1094706
-506.1866934
-506.2639163
-506.3411391
-506.418362
-506.4955849
-506.5728077
-506.6500306
-506.7272534
-506.8044763
-506.8816992
-506.958922
