-32.91300201
-40.97723389
-49.19291687
-58.55970764
-65.5796814
-71.09849548
-75.59537506
-77.85684204
-79.98271942
-82.80896759
-84.37638092
-86.65740204
-88.13006592
-89.58454132
-90.84770966
-91.03739166
-91.29473877
-92.97470856
-91.8712616
-91.99517059
-91.60379028
-93.49082947
-97.94143677
-102.0936584
-109.1056595
-114.3974152
-120.7947693
-126.5157623
-135.4331055
-146.9573517
-158.3262634
-169.5812988
-180.8895416
-193.8776093
-208.4635468
-223.7644958
-239.6035004
-256.3946533
-272.4358215
-285.844574
-300.1292114
-311.057373
-323.6347351
-336.2316895
-348.5438232
-361.9959412
-371.2090454
-383.4899292
-391.9801636
-402.1672974
-409.756897
-414.9370117
-420.5445557
-428.1291809
-436.3298035
-446.9354248
-457.6235657
-467.3093872
-475.9701538
-485.5539246
-493.1835022
-505.250061
-510.742218
-516.9219971
-517.2932129
-515.9173584
-511.1351318
-509.593689
-520.6453247
-542.7457886
-585.2071533
-639.1218872
-668.8189087
-666.6309204
-645.0134888
-654.0770264
-702.0621338
-758.6191406
-797.6893921
-822.7666016
-835.3458252
-830.8944092
-816.994751
-803.0093994
-796.9379272
-780.9788818
-753.2571411
-724.3096924
-700.9202881
-689.0628662
-686.5522461
-671.5874023
-626.7978516
-540.2590942
-425.6578064
-311.960083
-211.8914185
-126.3719482
-56.41394043
-28.48235703
-72.75406647
-179.8960724
-306.0384216
-424.9180298
-523.5966797
-584.1695557
-600.1802979
-585.7435913
-562.4263306
-535.5199585
-510.11026
-500.0828247
-497.9033508
-505.672699
-530.9433594
-571.711792
-629.1525879
-678.130188
-705.9196167
-723.4113159
-745.9945068
-755.0745239
-724.7578125
-650.8432007
-564.2559814
-500.8297424
-474.8437805
-512.24646
-580.1228027
-664.7462769
-729.6962891
-727.0582275
-716.4919434
-664.06427
-611.6563721
-557.6448364
-504.5508118
-457.2786865
-409.7577515
-369.384613
-328.5114441
-292.7839966
-254.3496704
-217.3166199
-179.9483337
-142.5539703
-106.9327164
-73.77827454
-40.84300232
-8.634029388
24.49329376
54.37016296
82.80151367
110.7853165
135.6390381
162.4429932
183.1982422
206.096344
227.5830383
246.4165802
262.5112305
280.6430054
299.8543396
317.3771362
334.6375122
350.7796021
374.0812378
400.8388367
431.7328186
462.7918091
494.3582153
524.2949219
550.0210571
576.6835938
583.0639648
581.085083
572.1364746
561.5672607
576.8054199
615.3182983
666.1913452
701.4465942
707.4782715
687.7325439
660.8701172
643.8556519
647.6590576
666.9501953
706.3535767
751.928772
772.7227783
745.2386475
685.100708
628.1213379
608.3474121
632.9522705
688.9193115
751.093689
808.4290161
853.2420044
872.9140625
860.5966187
819.6756592
772.3528442
743.0682373
747.7919312
777.2180786
814.5985718
843.3805542
860.9026489
872.8811646
891.9925537
916.8494873
940.071167
958.9678955
977.7541504
999.9240723
1014.464844
1013.768066
999.6365967
974.1039429
941.3303223
915.4320068
897.4401855
878.6815186
860.2851563
851.5720215
846.8538818
843.4291382
834.8959961
826.6323853
816.2856445
807.9074707
798.0361938
789.5334473
779.7801514
772.0040283
764.453064
758.2286987
750.7409668
744.1434326
737.3674316
730.8682861
725.8267822
723.2543945
720.437439
719.9251709
717.6435547
715.3131104
714.5194092
715.7468262
716.5425415
721.1427002
724.9706421
729.5632324
731.7356567
734.8695068
740.6185303
743.046814
746.6264648
750.9279175
752.6397705
752.7706299
753.1832275
753.0073242
751.7683105
748.0406494
738.8625488
729.74823
717.0647583
701.5872803
681.1394043
664.0233765
646.9625854
627.6065674
607.6289673
587.7232056
567.0241089
546.3846436
525.0835571
504.4725647
486.25
467.1546021
448.6247253
434.34729
419.684967
406.1760864
393.3417969
381.6802979
369.7935181
359.0145874
348.8952026
338.1489868
329.6796265
320.7325439
314.956604
310.1335449
303.2697144
299.4163818
295.0288391
292.9230347
289.6021729
285.7137146
283.8407593
283.1816101
283.5261841
283.9207458
284.1191711
285.5621338
286.3364258
287.5568848
287.8555603
289.4716797
291.1306458
291.0820007
291.5423279
290.7885742
290.2496033
289.4257813
287.9310303
284.1523438
282.6609802
279.4574585
275.5105591
271.500061
268.519104
267.0624084
267.4793701
267.0343018
266.4223633
265.1540527
266.9062195
268.9840393
271.800354
277.0900879
282.3688965
283.9668274
284.5397034
284.6809998
286.9197693
287.8456421
288.6497803
289.7115479
288.7355652
286.0998535
282.4771423
278.6311035
272.6984558
267.7637634
264.1982117
263.218811
261.4639587
261.1016846
263.5802612
265.1080933
265.3821411
264.3841553
263.1387024
262.3309021
265.0563965
269.5367737
274.8307495
282.0397034
289.0109863
295.5655518
301.0349731
306.0234985
310.6941223
314.8800049
318.5467834
323.5852661
330.2964172
336.9151001
345.1800537
352.2893066
360.0514526
367.4587097
377.010437
385.5270386
393.9153137
404.0334167
413.145752
425.6075439
439.1787415
453.7704468
467.2277832
483.7323303
501.7725525
522.8560181
541.359436
563.4547729
584.1751099
608.0731201
634.0282593
662.442627
692.0414429
721.9213257
752.5891724
785.9151611
819.0266113
858.1756592
897.5238037
944.5454102
992.6403809
1035.233398
1063.904785
1072.121826
1055.163696
1024.685547
1000.45166
990.9793701
988.4452515
980.534668
959.3380737
935.0695801
922.8242188
934.7614136
972.5010986
1022.321167
1051.828735
1059.217773
1040.889526
1004.795776
965.27771
934.0968018
913.6104736
908.8378906
918.1723633
933.6383057
947.9255371
957.3999023
950.074707
924.3969116
888.2178345
851.4279785
819.553833
818.1479492
852.387207
913.0257568
990.1557617
1072.002686
1125.3302
1127.027954
1093.950317
1061.631226
1041.830566
1041.273193
1040.803101
1021.478333
973.6271973
906.3812866
854.3431396
852.2982178
907.8597412
992.6037598
1054.206299
1067.588013
1055.246094
1048.428223
1061.85498
1104.318848
1174.487061
1237.041992
1257.924194
1236.821899
1196.114136
1148.151489
1062.837158
943.2918701
788.1881104
653.869751
596.5263672
539.4841309
545.8013306
534.204834
543.5300293
557.4192505
570.3361206
586.81073
587.6585083
594.168396
594.1184692
597.0407715
588.1105957
584.9209595
572.647522
565.9338989
556.1807251
543.6757202
530.6609497
518.4689941
505.0443726
491.596344
480.0382385
468.8772888
456.9196777
445.0496521
431.5333557
419.4776001
407.7000732
396.3208618
385.6143188
374.2149658
361.5924377
353.6380005
346.3769531
341.2486877
336.4526978
329.8305664
326.0792236
321.9755554
318.2536011
312.4128418
307.958252
302.231842
299.4785156
298.2221069
297.3328247
297.7927551
299.1918945
301.0827637
304.993988
310.3263855
313.6948853
317.2044067
321.5877686
326.1004028
332.8543701
337.4193115
345.1913757
353.6315308
361.3863831
369.4029541
375.3329163
378.7922974
382.0697937
387.5525513
391.3825684
395.0783386
397.6168823
398.9746399
398.4376221
398.1020813
397.0685425
396.3626099
396.9797668
396.0335999
394.0292664
392.3469238
393.3591919
393.9309998
394.5775452
395.5447083
397.6497498
398.4963989
399.0341797
399.9714355
403.6264954
407.939209
413.1017456
419.4175415
424.3022461
428.087616
431.6069946
433.5164185
436.2174683
440.0456238
444.7468262
446.1858826
446.7966919
446.3611755
447.0996094
442.8034058
438.8952026
433.9158325
427.2630615
419.2375183
409.7383728
398.7561035
385.9882813
374.9829407
363.8414917
349.3548889
335.9890442
322.0985107
308.9915466
297.3808594
289.5236816
285.596405
285.9346619
283.588562
281.940979
279.0099792
276.8708496
276.3503723
277.8354492
278.5061951
276.803833
277.491333
276.5811462
275.7067871
273.833313
271.7686462
268.6152649
264.6889648
258.3386536
251.8481445
248.6545715
244.4181671
242.2645416
238.3073273
233.5232697
226.4039001
219.949295
213.6192017
206.5258942
200.5305786
195.6353455
190.6291199
185.1222534
179.4654846
172.3536682
168.0412903
163.3943634
158.956955
153.7881927
147.6757813
141.907608
136.0227966
129.780777
126.8476105
123.7924805
120.7849121
117.7858276
114.7457275
111.901474
109.5873108
107.7851486
106.7982483
104.4591827
102.3742218
103.1933441
103.4191589
105.0741501
108.5973358
111.8375015
116.1307068
120.4655457
124.3660431
129.5024719
135.4527435
140.4051056
144.5934296
145.4227295
147.1689301
147.5054321
148.3666687
147.484848
146.62146
145.7507019
141.8728943
138.2773895
135.2666931
131.9712982
128.860611
124.4194946
122.8621674
119.5543823
115.6712952
112.7303848
111.0774384
110.0360031
113.2273636
112.1880264
113.6778717
115.5993347
118.2089462
121.6163406
126.3831635
130.6455536
135.8279877
139.4110718
144.1599426
149.3122864
152.3009033
155.4972992
157.7028198
161.4689941
162.9151306
164.6974792
166.5233612
168.839447
170.5976257
170.5967712
171.2188263
170.6567383
169.0856476
167.3531036
166.8296661
166.4553528
164.9158325
164.6945801
163.6685181
162.3560333
157.7430725
153.3643951
149.9204712
147.6941833
145.0812683
141.8211823
137.8111115
134.0880737
131.4253235
129.72258
127.0669327
125.9525909
127.3223114
127.8226624
127.8161163
127.5611572
127.7425537
128.300827
129.5497131
131.4279327
133.6205444
134.6488495
136.6156769
140.1699066
142.9419556
146.9747467
152.4980164
157.1383667
159.3586121
160.9485474
161.8538208
163.6555176
166.3943481
169.7831726
169.8201599
172.872345
175.5318451
179.2693329
182.7333221
188.2825775
194.4973297
199.1448059
205.835968
212.8198242
220.0434265
227.6987915
235.2318268
244.0425262
252.9050903
262.4638367
273.1298828
281.5429382
289.185791
294.8352051
298.0001831
301.7537231
304.6368103
306.726532
306.4151917
305.565155
303.0238037
301.5145264
298.6187439
295.0170288
293.8701477
292.6512146
290.194458
289.1742554
287.3511353
286.1386414
284.8296814
283.9559937
282.6749268
281.447876
279.6156616
279.6988831
276.9953308
272.5080566
266.887207
261.1793823
253.8613739
246.9920959
240.1669159
230.3056335
221.1017914
209.8598175
200.2420197
191.0231934
181.8415222
172.8352051
164.5112457
157.7670135
154.2372437
149.7385559
150.7500458
150.4295959
152.6801147
156.5157471
164.0816193
174.3872986
184.1786957
193.8963928
205.1840515
219.3118744
231.2095947
242.6583557
254.3745422
263.0941772
272.149292
279.4592896
299.0114136
324.3501282
360.9731445
405.8644714
465.744812
530.6415405
580.489624
622.3950195
662.9588623
711.6213379
777.6287842
864.9542847
964.520752
1059.035645
1118.80542
1116.088623
1049.259521
919.3721313
797.1387939
687.9105225
596.5209351
577.300293
546.6507568
555.3074341
548.2747803
553.7520752
552.7570801
551.0956421
553.2958984
546.505249
545.8286133
537.6057129
530.0943604
517.5067139
506.7372131
493.4313049
478.7613831
465.8708191
450.2757568
435.6395264
420.9884033
406.6862793
392.5673523
379.7564087
366.1372681
355.4603577
342.3453674
330.2273254
318.4190063
309.2598572
299.9102173
289.6933289
281.297821
273.753418
267.5969849
261.8349915
257.2270508
252.642395
249.2982483
244.4577484
239.4558105
234.3459015
230.5149384
226.6269836
222.5470276
220.657547
217.9285431
213.0556946
209.8293152
206.9138031
205.0706787
205.0030975
203.8860168
201.9127808
201.5270233
201.4019318
201.0444946
199.7630615
199.2802582
203.1333771
205.8659668
207.6859283
211.0758057
213.9944458
217.5474396
222.514679
227.9058075
233.2884369
237.8721924
242.7770386
247.804718
252.5875702
256.4992065
261.6209412
267.4490662
274.0034485
279.785614
286.4541626
291.967041
298.9480896
302.9303589
307.9039917
312.4689941
314.5453491
314.2679443
314.5194702
315.6091919
313.3276367
310.8560181
306.0172729
303.5015869
301.3074646
298.4664917
294.4414673
288.881958
283.9335022
278.1257935
270.9910278
264.1609497
256.7266541
247.7593994
239.4987793
231.8455811
225.2812805
215.8849335
207.5432434
200.4781494
193.5684814
184.2342224
173.1477661
163.2627563
151.7696686
138.9752197
127.3214417
115.3677826
102.4939575
89.34885406
77.67773438
63.55558014
50.6654892
36.83602524
25.00447464
10.99707413
-2.881221771
-16.2303009
-30.56105423
-46.25234985
-62.91877747
-77.96461487
-92.5974884
-107.7356567
-121.7938843
-136.8870392
-151.9228821
-166.0118408
-179.4169464
-189.7206116
-201.0638885
-211.3618317
-222.230835
-230.8371277
-238.7445068
-245.1573792
-251.6555328
-257.9119873
-261.7171326
-266.9668274
-271.2289124
-275.2409058
-276.4748535
-276.1074829
-273.2379761
-270.59021
-267.0476685
-264.6662598
-260.9414673
-257.1944885
-251.72435
-247.1748505
-240.4638824
-234.610611
-226.3464508
-218.9632568
-211.1933746
-202.7338867
-194.2658386
-185.6580048
-178.0986023
-172.4046173
-164.9459534
-155.4021912
-148.8879089
-143.2511749
-139.402359
-134.3094482
-129.4828796
-126.0351028
-122.3752823
-118.6080017
-114.623558
-110.0848312
-106.1461487
-101.8549118
-97.82699585
-96.20018005
-95.39246368
-93.10293579
-89.61815643
-87.26808929
-84.38764954
-81.80119324
-80.1619873
-79.28767395
-76.28572845
-73.41591644
-70.82290649
-67.87604523
-63.78052521
-59.7826004
-56.53753662
-56.39024353
-55.82891846
-54.76751709
-55.09440613
-55.68948364
-56.16971588
-55.81031036
-56.34020996
-57.38526917
-58.28663635
-61.18386841
-65.64300537
-72.10726929
-81.63793182
-90.60136414
-101.805336
-112.5245361
-122.9964905
-132.2234802
-140.407486
-149.2671509
-157.6288452
-163.3665314
-171.3604889
-180.7182617
-188.9221497
-197.3183594
-206.6934967
-213.7030945
-221.7525635
-228.1943054
-232.9561768
-236.5329895
-238.3805542
-242.9217224
-246.9618378
-249.2079468
-252.3981171
-253.9012146
-255.4335175
-256.6515808
-255.1569214
-252.4562988
-248.7433472
-246.1619568
-242.1069489
-238.4988098
-235.6720428
-232.0172424
-229.5462189
-227.2181091
-224.8500671
-222.1844482
-219.695343
-218.4721375
-216.5586548
-215.5129852
-214.4489594
-213.7000427
-213.0092468
-214.680069
-218.2800293
-220.7212524
-222.6826324
-222.0861969
-221.204483
-219.5418701
-214.7875671
-214.1715698
-212.3821716
-211.6896667
-212.2481842
-211.844101
-210.5079498
-208.3315735
-204.7123413
-200.1001892
-193.8952637
-188.1971893
-180.5969238
-174.5881958
-171.1176147
-167.2450104
-164.4169006
-163.888382
-165.0441589
-164.4538879
-161.7914429
-159.0135498
-156.8713837
-152.5649414
-148.7287598
-146.0421906
-143.700058
-143.4779205
-144.952301
-149.3490448
-152.1386414
-154.3474274
-156.3715057
-156.0559387
-155.6011963
-154.5483093
-153.4418488
-151.3900909
-150.4554901
-152.6194305
-152.1619568
-152.9192963
-153.7796631
-155.4128418
-157.4092712
-157.282547
-156.3417969
-153.8640747
-151.6234436
-151.9434509
-152.6617279
-153.3590393
-153.704895
-154.0370789
-153.0476532
-152.4520264
-148.5897675
-144.8090973
-140.3739319
-134.881485
-126.7111969
-118.2436981
-107.716629
-97.80245972
-85.80560303
-72.28286743
-58.17980957
-41.33951569
-23.06038666
-4.493797302
14.44197845
38.21157455
61.93399429
89.26711273
113.2940521
142.2073975
170.3287964
201.3493652
233.530426
261.899231
291.7705688
326.7585144
365.4593506
424.7404175
498.1790771
573.7226563
645.5174561
699.0272827
736.1578979
722.1741943
681.4000244
649.1057129
638.3588867
612.0057373
548.4393311
472.5206604
397.5851746
336.3575439
320.8670044
294.1481934
287.9890747
281.6668701
290.1201172
295.4309692
302.864563
310.4523926
319.2731934
326.6123657
331.5728149
336.3510132
341.704834
347.8110352
353.7036743
359.7518311
367.7241211
376.0547485
383.845459
389.9449158
396.7425842
402.0669556
406.9329224
411.140686
412.758606
413.7619019
410.2546692
408.8117981
404.8835144
400.8026733
395.9141846
389.1079712
381.3864746
374.6512451
371.7771301
366.6863708
361.9442749
359.9557495
358.65448
358.3064575
357.7684937
358.1818848
358.6907349
358.6090698
357.74646
355.7261963
352.1265564
348.2120056
343.1617126
338.7009277
332.5189209
324.0126343
313.5974121
302.8105469
293.7833862
282.8995972
272.5858154
264.6416626
257.2633057
250.1327515
241.403244
234.421936
227.1436157
221.4125977
216.0912628
210.9898682
205.4887848
202.6097412
200.2976379
200.7310944
202.3779602
204.1985168
204.2052612
202.704483
201.625061
201.1356506
201.7962646
201.7761841
205.5521393
208.2601471
210.4559631
214.5340576
218.5233307
221.9448547
223.684021
225.1965179
227.75383
230.2114716
232.2499695
234.6876831
238.3201904
243.8475037
249.3833313
254.4273987
258.98526
266.3398743
272.2585449
278.9663696
285.0022278
292.4595337
299.14151
308.2455444
317.81604
327.2718506
337.0918884
343.7304993
351.9390259
357.578064
362.5238953
367.3217773
368.6499023
367.9832764
366.0595093
360.2033691
347.8995056
335.227356
321.6578369
305.1948242
285.9056396
268.4574585
252.3047638
236.2529297
220.1141815
204.3004761
186.9159851
171.160553
159.3948517
145.7510681
132.9863281
121.8317871
111.9608994
104.3574066
96.88046265
89.25793457
82.41726685
76.0466156
71.39750671
66.0695343
59.68157959
54.05894852
48.52626038
42.90223694
38.55043793
33.13188934
27.03219414
18.59700394
10.60045242
3.903190613
-2.415500641
-8.365673065
-15.59272003
-21.71467209
-25.26954651
-30.15377426
-33.62247467
-37.62630081
-40.00705338
-42.9823761
-48.61973572
-52.40981293
-55.99964905
-59.61751556
-62.8190155
-65.87145996
-67.15467834
-70.98231506
-76.10865784
-80.91443634
-86.69480896
-95.23255157
-103.8991013
-112.9054489
-121.3519974
-130.6972961
-137.9127808
-144.3714294
-152.2834778
-160.611084
-168.6120911
-178.7314301
-190.397995
-199.4871063
-206.847168
-213.3504181
-219.4329529
-224.1303558
-227.0541077
-230.7118988
-233.1616211
-235.263916
-235.5206146
-236.6955109
-236.9176788
-238.621521
-238.4358215
-237.8271332
-236.3139801
-233.1021729
-229.6958618
-226.0068817
-224.0217133
-223.4702148
-222.3118439
-220.7691803
-219.7152405
-217.2293396
-214.1068115
-212.1968231
-209.4974976
-208.4768066
-205.608429
-203.481781
-203.446106
-205.025589
-208.4870758
-211.8942413
-215.7410889
-219.8994751
-224.2531433
-228.0844421
-231.7568665
-235.7556152
-237.5619354
-241.7392273
-246.4748993
-250.4374695
-254.1236267
-254.8752747
-256.229187
-257.7920532
-259.1342468
-258.9873657
-258.6921387
-259.6954346
-261.9154968
-263.4945374
-266.1899109
-268.7874451
-269.5418701
-269.8633118
-271.0448608
-272.5983276
-273.5970459
-274.4530029
-276.0100098
-278.0841675
-279.399292
-280.9611206
-281.0775757
-280.1508789
-278.7864075
-278.4677734
-277.7041931
-275.9784546
-273.4599304
-269.7144775
-266.0012817
-260.8141785
-256.0649719
-249.8504181
-245.6369171
-241.7759552
-237.9091492
-232.6748962
-226.1517334
-220.0424957
-214.15242
-208.6752625
-202.1940613
-196.6745758
-190.464386
-185.7068329
-181.6102295
-177.3916321
-172.7108612
-168.4900818
-164.5714874
-160.0161133
-154.3732758
-148.7796631
-143.0392609
-139.1549225
-133.9518433
-128.3930664
-123.9388428
-117.9944992
-111.161438
-105.4663391
-99.35361481
-91.86687469
-85.74703217
-79.95158386
-73.27061462
-64.2346344
-55.9189682
-45.81280518
-35.9217453
-23.10639954
-12.16953278
-0.410995483
11.30953979
23.05012512
36.53598022
49.13119507
61.41975403
71.11978149
82.55053711
90.46147156
99.54310608
110.0865021
118.8946075
131.6728516
148.1146545
169.2456665
193.4953003
223.0406189
255.5444641
286.4929504
306.8452454
315.6105652
314.1773071
305.3036499
294.3330688
283.6244202
270.479126
253.9541626
236.1960754
221.124176
212.526947
208.2528076
212.4888916
222.6086121
234.6340332
244.9085083
245.8843689
243.1819153
238.3117065
223.4465332
200.7841187
174.1689606
148.0540924
116.8477936
85.39625549
55.82543182
31.0967865
20.25006104
20.99754333
36.22027588
58.83976746
77.50744629
88.61154175
112.7100067
171.8141785
270.016449
386.8273926
480.5098267
494.4665527
453.5419312
359.6560059
247.1457214
146.0623474
55.30268097
-4.230625153
-59.9944458
-72.98661804
-93.89854431
-89.49151611
-98.73706055
-98.68755341
-99.43153381
-100.5781479
-100.4415436
-100.1770554
-100.3512497
-102.8454971
-105.9483414
-114.4622726
-121.2379074
-128.8812866
-135.3478241
-140.8850708
-146.1704559
-150.7583618
-154.0619049
-159.6751556
-166.387207
-173.4124603
-178.3433838
-182.6002808
-186.0912933
-190.2533417
-194.8099365
-199.6286163
-207.7472992
-218.1439819
-227.8335419
-237.0113831
-246.4986572
-255.0250549
-260.7151184
-265.2316895
-267.7581787
-267.841095
-265.5247803
-260.0930481
-253.094696
-247.1654663
-242.6573486
-241.0895996
-238.0836487
-236.5994263
-236.1105957
-235.1107483
-233.6377869
-231.7377319
-232.4856262
-231.2814026
-229.2957153
-225.3188171
-223.5339966
-220.2713623
-215.9887085
-210.5384064
-205.5371857
-200.029953
-194.5958862
-189.9134064
-183.8177643
-178.499588
-173.5482941
-168.5241699
-163.1150055
-159.8954926
-157.768692
-155.5140076
-150.0917664
-144.6386719
-138.9630432
-132.7106476
-129.9847412
-125.5879822
-123.3794708
-120.9211731
-116.3235092
-111.4094849
-107.4403534
-101.4918442
-95.26316833
-90.58383179
-85.14860535
-78.52285767
-71.20936584
-63.07310486
-57.12511444
-52.43721008
-49.23661423
-46.75241852
-45.2558403
-45.99746704
-44.55919266
-43.68823624
-44.13785934
-45.54022217
-46.8394165
-48.5641861
-49.67329025
-52.02138519
-56.29708862
-60.52335739
-64.8632431
-71.18048096
-78.50244904
-84.27590179
-88.72509003
-91.91889954
-93.69434357
-96.30682373
-98.59815979
-102.1314392
-104.6636581
-106.0519485
-108.1519547
-107.3691711
-105.2839279
-103.4284134
-97.64178467
-91.40370178
-82.05570984
-73.93984985
-64.29389191
-56.10037231
-46.93585968
-38.97164154
-28.76714325
-18.59410095
-6.507659912
5.394073486
18.69094849
31.81900024
42.49865723
52.86381531
61.97558594
72.07965088
79.8430481
87.75950623
93.19732666
98.51400757
104.5805664
110.1016235
116.6696777
123.7657471
128.4779358
131.7698059
135.9160767
137.2003784
134.2055054
126.7632751
118.79245
109.6904602
97.35214233
84.90493774
74.22851563
66.4223938
58.40710449
49.88082886
41.25398254
34.30940247
26.08920288
18.04090881
11.14480591
5.148788452
-2.57182312
-8.804931641
-16.56227112
-23.86088562
-32.52453613
-42.64254761
-50.98706055
-57.00802612
-62.93870544
-69.55914307
-74.78933716
-79.44314575
-84.87287903
-90.80818176
-97.63322449
-103.3513947
-109.66716
-116.1741028
-123.2493744
-129.6345367
-134.4900513
-139.9026489
-146.6520081
-155.0709381
-163.1230316
-174.9929504
-185.775177
-196.4009705
-208.8314209
-220.2512207
-230.5801086
-239.7902985
-250.5726929
-258.9728394
-269.4307251
-281.747345
-293.592804
-304.8206177
-316.06604
-328.3084106
-341.4073181
-351.5015259
-360.6222534
-370.0495911
-379.4582214
-389.1775818
-397.7947083
-406.8232117
-420.3571167
-433.9553223
-447.4179993
-462.4919434
-473.8963623
-484.2559204
-494.3834839
-502.3536377
-509.8740845
-519.006958
-526.5379639
-532.2561646
-539.6651611
-544.7355957
-548.2662354
-548.6586304
-548.9945679
-549.2773438
-548.4924927
-549.3388062
-550.4638672
-552.9573975
-555.1235352
-556.2736816
-558.0402832
-558.8221436
-561.0748901
-564.2965698
-566.6085815
-570.6501465
-576.4974365
-582.0200195
-589.7826538
-597.0583496
-604.5239258
-611.9116211
-620.1859131
-627.2546997
-634.956543
-643.1304932
-648.7879028
-651.4296875
-652.2962036
-652.1398315
-654.7200317
-655.7255249
-658.9191284
-667.2032471
-680.0149536
-697.0980835
-716.7409058
-738.1558838
-756.3964844
-763.9768066
-768.5389404
-767.0136719
-758.43396
-742.3718262
-721.6890869
-700.5256348
-680.2764893
-661.6984253
-644.2041016
-630.1102295
-622.2212524
-621.5679321
-618.6817017
-619.1646118
-620.9554443
-621.6885986
-622.5406494
-622.4910278
-622.7053223
-623.6098633
-629.4065552
-635.4226074
-649.6871338
-665.3709717
-686.668335
-708.2025757
-728.784668
-749.7047729
-764.6610107
-780.1635132
-792.8088989
-803.7456665
-810.7712402
-813.6633301
-803.003479
-784.9945068
-763.4974365
-747.5995483
-737.5302734
-736.3303223
-745.621582
-768.0046387
-809.4152222
-862.5980835
-906.3421631
-933.8616943
-939.1538086
-931.2592163
-924.7768555
-917.5773926
-905.0880127
-875.4656372
-851.258728
-823.3115234
-797.921875
-774.6137695
-751.3186035
-732.56604
-713.3071289
-698.90802
-683.5402832
-672.2538452
-659.2919922
-647.4207764
-636.6370239
-628.0467529
-616.9488525
-606.2599487
-600.3336792
-591.9168091
-584.5927734
-576.0797119
-572.5438232
-569.5842285
-571.8965454
-572.3427734
-576.0792236
-584.4509888
-581.5259399
-573.0159912
-544.3627319
-503.414917
-432.5485229
-348.1033936
-238.2586212
-143.0674744
-79.14868164
-41.68954468
-23.23724365
-26.60385132
-59.55731201
-128.7886353
-237.6346436
-375.6403198
-507.3736267
-595.293457
-658.7637939
-640.2495117
-629.8622437
-586.2896118
-560.133728
-533.7014771
-503.9766235
-494.7107239
-470.7698364
-464.712677
-452.6281738
-449.1256409
-439.7496033
-433.2926331
-427.692688
-421.2218628
-416.3698425
-410.1900024
-404.8985596
-398.7542725
-391.7071838
-383.1374207
-374.1977539
-366.4346924
-358.0405884
-347.8982544
-337.616394
-327.5248718
-316.5341797
-307.1696777
-297.9727783
-289.0345764
-280.7445374
-271.3785706
-260.8591919
-254.3529358
-246.3917999
-236.6548615
-225.1601715
-214.3094788
-203.2985229
-190.7135773
-178.9494934
-168.3029785
-158.4636078
-148.1410828
-135.7797852
-124.5082092
-114.235527
-101.9235382
-89.96955872
-77.98519897
-67.08885193
-55.25461578
-42.92871857
-31.46636963
-22.2855835
-12.28263855
-3.26953125
3.787506104
11.75172424
19.1091156
23.77746582
29.04664612
35.33908081
41.30062866
46.69056702
52.88839722
58.63938904
65.95574188
71.14820862
77.78575134
83.68740082
86.47841644
91.73587036
96.42031097
102.7940216
108.8148956
114.8076248
121.526123
128.1585693
133.5314484
136.8682251
140.1430969
142.4122925
145.0443115
145.6300201
145.2161407
144.6001892
144.6871948
143.6931152
141.4981689
141.3638611
141.7323303
140.7362671
140.2241364
140.4101105
140.0950928
140.0154877
138.7266388
136.8940582
136.1441345
134.9004974
133.1537781
132.1969604
129.9949341
128.8146515
129.3694153
127.2264328
122.5353012
119.2844696
112.2686005
103.6635132
96.41656494
87.25106812
77.71206665
69.6557312
61.37667847
55.60957336
52.01361084
51.56494141
51.71322632
52.75592041
52.33157349
53.77789307
56.11810303
57.77755737
60.93557739
65.08242798
66.79498291
69.73770142
74.91802979
82.10601807
89.39129639
97.24819946
106.7934875
115.295166
124.9223633
136.9740295
150.5055237
165.3522034
182.8196564
197.532196
212.6261139
226.5258179
239.4947357
253.6813507
269.5440979
286.4681396
304.2401123
320.951416
339.4499207
357.0311279
375.6058655
392.4758911
407.9806213
423.5770874
440.265686
457.3370056
472.9080811
490.3266296
508.1349182
526.255127
543.8635254
561.1581421
577.8557739
593.0785522
607.1994019
620.5563354
635.8676758
650.2905273
666.5460205
683.375
699.1243286
714.1792603
729.2614746
745.1537476
757.829834
772.380249
787.8291016
805.7235107
823.3317261
840.097168
855.9445801
869.3029785
881.0098877
889.1253052
895.4560547
897.0844727
896.6826172
900.0619507
903.727417
916.5966797
938.3764648
969.3236694
1005.943726
1037.089233
1050.065674
1037.904419
1003.077454
965.3735352
944.8948975
951.5637817
975.8353882
994.2476807
991.9147949
969.9946289
940.2230835
916.6851196
915.595459
937.4155273
970.7772217
997.6918945
1011.993408
1001.633972
984.6338501
980.2524414
978.4541016
971.5657959
960.9232178
957.5304565
973.102417
1017.247437
1083.526489
1147.471924
1192.618164
1219.373779
1228.161133
1223.820557
1215.092896
1200.903809
1184.479126
1174.361572
1177.598877
1182.334473
1163.425537
1117.918091
1070.356445
1046.968506
1053.19873
1055.219482
1040.370361
1008.706726
972.807373
945.6079102
936.2794189
933.2443848
940.4205933
946.3533936
945.0283203
945.6605225
941.2267456
937.4165039
927.7626953
918.1235352
906.4205322
893.7719727
880.5821533
868.661377
855.8642578
842.3601074
831.9308472
820.5957031
810.9665527
801.3261108
793.9291992
784.8703613
777.2491455
770.6801147
768.9346313
764.8149414
760.59552
756.0736694
750.9146729
748.2873535
746.3434448
743.2428589
739.9335938
736.5345459
731.8685913
726.9083252
719.6490479
711.3231201
702.2824707
692.7030029
680.2348022
670.4799805
660.6728516
651.3134155
640.3861694
630.9622192
619.9875488
608.772583
599.0426025
590.4511108
581.9981079
574.5029907
566.9804077
561.0135498
557.2363281
552.6147461
547.8944702
542.2286377
537.3083496
533.7469482
527.4160767
522.7992554
516.8586426
510.8457947
504.5560303
498.4475403
491.3787231
484.6173401
478.0753174
469.5511169
461.449585
451.645813
443.2385559
434.5223694
425.2504272
413.5636292
402.7536926
391.31427
380.84375
369.9695435
360.2410889
347.4398193
333.4763794
322.5674744
312.3369141
311.4718018
313.1324768
323.7150269
340.6376648
367.0737
401.8595886
444.3757324
493.2715149
543.4790039
588.5591431
626.7214355
649.0432739
655.3823242
627.8148193
579.524231
500.1930542
427.0050049
370.8556519
317.2733765
290.3979797
250.4944916
228.3174438
204.8380432
198.7525024
186.3576355
181.7361145
174.7735901
166.6932678
159.3084106
149.7727661
142.4576874
131.9092102
123.5563202
113.6401901
103.9125671
92.92607117
82.20745087
70.74673462
61.10441589
51.67905045
40.00305939
27.93336487
17.24053192
6.71346283
-2.695587158
-11.53701019
-19.25179291
-26.70291138
-35.09039307
-42.95391083
-49.92723846
-55.92922974
-62.47881317
-68.24626923
-75.24024963
-81.65907288
-88.45349121
-95.98529816
-102.9465714
-110.7506409
-118.2197342
-126.5638275
-135.1816406
-144.9060974
-154.4331665
-163.260498
-170.4494629
-177.722702
-186.2169342
-194.1025696
-200.8313141
-208.0999298
-212.9484863
-216.5924377
-220.1060638
-221.4634552
-224.8623505
-228.5445404
-231.1423492
-233.2167969
-235.5831604
-239.1957397
-242.860672
-246.7966461
-250.195282
-252.5590515
-255.4913483
-257.0633545
-260.4789429
-263.1654053
-266.7468262
-270.4406433
-274.5154114
-278.3510132
-281.4315186
-281.8106689
-284.296875
-285.644165
-285.9029846
-285.7591248
-286.4768066
-285.6511841
-283.3098755
-281.1917725
-278.8188171
-276.5858154
-275.0314026
-273.9737549
-273.6323853
-273.4160156
-272.4153442
-272.3221436
-272.7614136
-272.8919678
-272.4518127
-271.1193848
-269.8553467
-270.5526428
-270.2297058
-272.7835693
-273.6103516
-273.6422119
-274.6498718
-274.8976135
-274.8996277
-276.3239746
-275.855835
-278.1577148
-278.1548157
-279.1524353
-282.7380676
-287.3485413
-292.9631958
-300.1707764
-309.2971191
-319.7354126
-330.2008667
-341.2702942
-351.0210876
-362.0652466
-371.371582
-380.6481628
-388.6977844
-395.8754272
-403.8641357
-412.8165588
-420.4108276
-428.0377808
-436.5328979
-442.8875122
-446.9573975
-451.2409668
-455.6661377
-457.6518555
-461.3399048
-463.4881592
-463.8276062
-465.6956177
-466.1157227
-466.0636902
-467.1651306
-469.4222717
-471.0651855
-471.5368042
-471.6357117
-470.3940735
-468.9537354
-465.2738647
-461.9785156
-459.5407104
-456.2498779
-454.0158691
-452.1328125
-452.2660522
-452.2246704
-452.4284668
-451.40625
-450.0849609
-447.8458252
-445.708313
-442.4757996
-439.0205383
-438.2758179
-437.3527527
-437.5548401
-437.5614014
-436.6330566
-434.818634
-432.7191162
-430.5898438
-428.5285645
-424.586731
-420.1625366
-415.9325256
-410.0469666
-404.8460388
-402.2736206
-399.5055542
-395.5234985
-390.5879517
-386.9938354
-382.6585083
-378.4194031
-375.1994019
-371.4439697
-367.8840027
-361.6915283
-356.6060791
-351.5366516
-347.2459717
-343.1337891
-339.3918152
-336.4985962
-333.6401978
-331.3597412
-326.954834
-320.8862915
-316.5021667
-310.0612488
-306.0628052
-301.500061
-297.1266479
-293.6687012
-289.2050171
-286.2095642
-284.7600403
-282.6821899
-282.2169189
-280.969696
-279.2869263
-278.6257935
-279.0185242
-279.2035217
-281.8598328
-284.0489807
-287.1951904
-291.444458
-293.5484924
-296.6578064
-300.440979
-303.8392639
-306.0328064
-306.9032288
-307.4076538
-308.513031
-307.9960327
-308.5769043
-308.3615112
-310.0232544
-310.6001892
-310.8330688
-309.2572021
-308.1809998
-305.7340698
-303.6889343
-300.588562
-297.2384949
-294.4100342
-290.1691895
-288.7183228
-285.945282
-281.1369629
-278.6873779
-274.6103516
-269.8361206
-264.3782959
-259.6911926
-254.0423279
-250.597229
-246.2442322
-239.9300079
-233.579361
-227.9856415
-220.2212677
-213.4309692
-206.370697
-198.8822632
-191.7355804
-183.5988159
-175.5645752
-167.0147095
-157.2613525
-146.5934296
-136.6854095
-125.5047073
-116.3043289
-105.2078171
-94.75896454
-84.67770386
-75.16501617
-66.58641052
-57.15530777
-47.36496353
-38.95329666
-31.37879181
-24.72683716
-19.65868378
-14.73442078
-9.740890503
-5.771286011
-2.318977356
1.469535828
4.96257782
8.140968323
9.820068359
12.38453674
13.97415161
15.62915039
16.4677124
17.50670624
18.76869583
18.9262085
19.97785568
22.3338356
24.92847061
26.34955597
28.4707489
29.07383728
30.47810364
31.36613083
32.96942139
33.38980484
34.37601471
35.53287125
36.69892502
38.46286392
39.45793152
40.77479553
40.97783661
39.27406693
36.64515686
34.3014679
33.03231049
30.70495987
30.06235123
28.88814163
28.97269058
27.42652512
30.30006027
34.32821655
40.33771515
48.08070374
52.38233185
53.40388489
56.58104706
62.87717056
90.38103485
136.9124146
223.3934784
318.0241089
396.0921631
442.1089172
471.4728699
499.213562
515.7194824
509.0079041
471.1592712
395.0814209
288.2626648
170.104126
66.42550659
9.554267883
-30.74176025
-22.65930176
-19.73143005
0.528083801
14.24325562
26.11141968
40.86993408
51.49169922
65.13703918
73.54559326
82.15840912
86.74588776
92.53059387
99.50639343
106.8637085
113.2239838
121.1189117
127.9216461
135.9888306
144.1016998
151.4376221
158.272995
164.8096008
171.9861145
178.8303986
186.6556854
195.0858307
202.2222137
210.3327637
215.9434204
222.2122955
228.2373505
233.1955872
238.8215942
244.7984314
248.9951172
253.228775
258.061615
262.7346802
266.8749084
271.2264404
275.4999695
278.782074
281.8464966
283.2312622
284.0358582
287.1420288
288.2554932
290.348053
293.1304932
293.6507874
294.7992554
295.8962402
296.3925476
297.0979004
297.1347656
297.9767151
298.8551636
300.7375183
303.438385
305.6138306
308.4195557
311.1545715
315.6235352
318.4231567
320.811615
324.2987671
328.800293
333.9852905
339.111084
345.1938171
351.7463379
357.828125
362.9915466
367.8876953
372.9848633
377.5267944
380.9324646
383.8043823
386.7636414
390.1429749
394.3315735
398.6199341
399.6875916
400.5779114
403.2246399
403.322113
402.5979614
399.9272461
398.8479919
397.2489319
396.3081665
395.6003418
392.598999
389.3452148
383.9501953
380.2584534
376.067749
373.3217163
368.916748
363.8631592
360.841217
358.7652283
356.5671692
353.7532349
350.3850403
350.0975647
348.5430603
348.038208
345.5381775
344.401886
343.3199158
342.451416
343.6306152
343.3158264
341.7857056
341.4982605
343.2694092
344.7249451
347.2995605
350.3538818
352.2892761
357.1841431
362.2476807
367.5714111
372.7112122
378.6324158
384.5357971
391.6864319
398.1989136
406.2592773
414.1981201
423.4431763
433.1006775
442.4389038
451.5881348
462.212616
474.5953369
486.6741943
497.03302
506.7599487
518.2698975
529.1031494
539.3509521
547.9890137
554.1973267
567.5090942
589.250061
619.5439453
651.1522217
670.8863525
684.0958252
683.4431152
672.8092651
655.0405273
634.7099609
617.758667
617.1688232
633.7381592
665.3710938
700.012085
715.3793335
705.914917
688.2153931
682.5458374
689.1729126
701.3061523
712.8201904
724.4866943
727.4818115
721.6669922
713.3748779
706.9161377
702.0496826
699.0955811
690.0310669
660.3167114
620.9534912
599.6290283
595.0377197
587.1082153
567.6241455
555.8345947
572.7225342
595.4708252
613.3916016
612.8665771
579.3154297
545.163269
501.7302856
462.0066833
425.5794983
391.7033997
370.8939819
344.2457886
327.8472595
307.1802063
289.7937927
271.1756287
253.7131805
237.4063568
220.4324951
205.5295563
189.7097778
176.2501373
161.3457489
144.8463745
127.5410919
108.8558578
89.84437561
71.5544281
53.72250366
37.25430298
20.77617455
5.28260231
-10.06833363
-25.0930748
-39.90836334
-53.54916763
-65.76600647
-77.75909424
-91.09890747
-102.4985428
-113.785614
-126.1361465
-136.6422119
-146.2806091
-155.5882568
-162.2358398
-170.3955688
-179.2196198
-186.3374634
-192.9516296
-201.0879822
-209.3491821
-217.6091309
-224.7463379
-234.2045898
-242.3473206
-249.4743347
-256.87146
-264.7755127
-274.5513916
-284.5615845
-294.4815369
-305.0995178
-316.7036743
-326.651001
-336.1505127
-344.1625977
-350.5534363
-357.0884399
-362.8837585
-367.883728
-371.7713013
-377.1631775
-382.4935303
-388.5725098
-393.9714355
-398.3670044
-402.2987671
-405.103302
-407.965271
-409.1271667
-411.760437
-415.3332825
-416.7761536
-417.2932129
-417.9794006
-418.9455566
-419.1528931
-418.9126587
-419.2385864
-420.601532
-420.1331787
-418.5840454
-419.37854
-421.0620728
-423.6169128
-429.3422852
-435.2733459
-445.0088501
-454.5578918
-462.8851013
-473.5715332
-485.722168
-497.0307922
-507.6295776
-519.4509277
-529.4907227
-539.4315796
-551.4230957
-561.8689575
-572.069397
-577.6551514
-583.253418
-585.8909302
-590.6832275
-594.4986572
-599.3320923
-608.5195313
-617.0391846
-638.7952881
-662.2473145
-700.7772827
-743.2099609
-774.9243164
-792.9931641
-794.5923462
-783.690918
-762.5723877
-742.1711426
-727.579895
-720.4764404
-732.439209
-768.8776855
-828.6109009
-898.6664429
-957.8522949
-989.277771
-994.2243652
-977.6262207
-932.0346069
-858.0785522
-770.5407104
-691.560791
-641.8852539
-624.2954102
-619.2403564
-600.680481
-556.0792236
-491.1478271
-433.6753235
-402.3220215
-410.3809509
-465.4885254
-558.8394165
-668.5488892
-779.1077881
-873.7062988
-941.3134155
-957.3760376
-940.4317017
-887.3899536
-814.635376
-738.1312256
-668.763916
-635.6439209
-618.9603882
-630.6762695
-664.953125
-714.4074097
-767.5623779
-816.918457
-853.2704468
-868.9238281
-861.6165161
-833.3341064
-788.0637207
-737.0161133
-693.4232178
-671.5463867
-674.5248413
-698.0800781
-724.0363159
-747.7331543
-761.2949219
-765.1206055
-770.1584473
-771.3566895
-768.104126
-756.7414551
-742.4332886
-719.9299316
-698.5132446
-670.0444946
-645.3704224
-618.4595947
-591.937439
-568.9771729
-545.1142578
-524.881958
-503.7407532
-487.474762
-471.7441406
-459.421936
-446.2637939
-434.3671875
-422.6297302
-412.0134277
-400.4466553
-390.0715027
-379.5681458
-372.8170166
-366.673645
-360.8777466
-357.9927673
-354.0065613
-350.5239868
-349.1395874
-348.1094055
-347.6506348
-349.7447205
-351.633728
-351.7143555
-352.3859558
-353.4742432
-352.8399048
-352.0968018
-349.9154358
-346.1157532
-340.2080383
-331.8017578
-323.9213562
-312.7926636
-300.7049866
-289.3533936
-277.6912842
-267.0680542
-257.7420044
-248.1268616
-237.1628876
-227.0497131
-216.033371
-206.5462952
-195.5200653
-184.1247711
-174.022522
-164.8384552
-156.7276001
-147.5552979
-139.2377014
-130.6372223
-121.9660187
-114.4090805
-107.4774475
-100.241127
-92.9730072
-86.37194061
-78.7460022
-72.43637085
-65.65736389
-59.37948227
-54.68733597
-49.58677292
-46.31599426
-43.13822937
-40.74259949
-39.1514473
-37.41868973
-39.28413391
-42.16436386
-43.59011841
-46.63243484
-49.16438293
-51.9302063
-54.47343445
-56.12181091
-59.24567413
-60.95097733
-60.45066833
-60.73029327
-60.43488312
-58.45517731
-56.70121002
-54.85063171
-52.19745636
-47.48706818
-42.15612793
-35.13986969
-28.21869659
-20.85766602
-9.87789917
1.375965118
13.53839493
28.26468658
42.43789673
56.89515686
71.93520355
86.03181458
102.724556
119.3535156
136.3697205
152.147583
168.1803131
183.2548065
199.6141205
215.0661926
229.5247498
244.4745178
257.6968689
270.5054932
283.7530823
297.5267639
311.6646423
325.4057007
340.7709045
354.8034058
367.2828369
380.0995178
392.7466431
405.7298584
417.9158936
430.0386658
440.5937195
452.9935303
464.8712769
476.1827698
485.1813965
492.3374329
497.6489258
502.2630005
506.7442627
509.2647095
510.0379028
510.4390564
511.4014282
510.4780273
509.0281982
507.4690247
504.9497986
500.6188965
495.3372803
491.2523499
489.5932617
487.8833618
488.5840149
490.4962158
494.7818298
498.3780518
503.0414429
506.1861267
512.6083374
519.5734863
527.3259888
535.2434082
544.8056641
553.4081421
561.512146
570.0509033
577.4482422
584.3936768
593.0396729
601.4075317
609.6290894
614.2826538
616.1687012
616.9342041
614.6321411
612.4998779
611.0501099
611.8048706
615.4667969
624.4561157
635.3921509
642.2453613
649.147583
651.3760986
653.8330078
649.1959839
644.4846802
636.5996094
627.0946655
615.9974976
606.0282593
593.3747559
579.7739258
563.5961914
547.9783936
532.3082886
517.0507202
502.4941406
488.4785767
474.5613708
462.7672119
452.9746094
443.2792969
437.4283447
432.0874939
425.1370544
419.1764526
414.9077759
412.5519409
411.8964539
410.909729
410.3748779
410.0733643
409.7244568
410.8628845
413.6591797
414.5036621
414.8544617
416.6765747
417.0766602
416.1306763
415.2433472
414.098114
412.0862427
411.6326294
409.7746582
410.7107239
411.5063477
415.8553772
419.6471863
428.2878723
439.5414429
451.940979
464.4139709
478.7500305
493.4917603
506.7218628
517.7653198
527.9712524
531.9612427
535.6687622
536.4693604
535.105835
531.2072754
526.5881348
519.8461914
510.5978394
500.1530151
490.2807617
481.6988525
472.9883423
465.0461426
456.4831543
448.4347534
440.4892883
431.5888672
422.8017578
415.192688
405.6260681
395.9046326
384.1679993
370.2235413
354.7839966
340.6583862
321.3176575
303.1697998
285.1072083
266.4433594
245.5302582
223.9288025
203.9130707
184.4776306
165.2505646
145.4728546
128.5313568
111.825737
98.07867432
82.67306519
69.18798828
57.67382813
47.28529358
34.58573914
24.65736389
15.29197693
7.224761963
1.18888855
6.590744019
17.67826843
37.36010742
57.80587769
77.3483429
95.03582764
126.1893921
168.7037048
228.8102722
311.291748
416.5868835
522.7110596
591.2686768
599.0350342
541.2871094
430.9298096
282.2819214
111.4039688
-57.71522522
-181.1745605
-268.7236328
-292.1421814
-289.8734436
-239.3290405
-200.3540649
-162.5792542
-128.0966492
-115.427887
-92.48390198
-90.03117371
-77.56804657
-74.30697632
-70.40567017
-69.34249878
-66.21606445
-62.70296478
-58.18230438
-53.96831512
-50.67031097
-47.51411819
-45.44555664
-41.02595901
-35.223526
-31.5735302
-26.25327873
-19.76491928
-12.94482231
-7.15130043
-2.062782288
2.295742035
4.956314087
2.153427124
0.052829742
-5.154670715
-8.275871277
-11.71397781
-14.6300621
-16.44253922
-18.92461395
-23.30918121
-29.09944153
-34.76179504
-41.02471542
-50.57479858
-59.90654755
-69.34988403
-77.91694641
-84.72301483
-92.1342392
-99.10890961
-105.3777237
-112.1392059
-118.5593414
-125.5235138
-131.7335663
-138.4222717
-144.9613953
-152.4528198
-158.9141235
-164.994339
-169.9515839
-172.1579132
-173.4403534
-174.1821442
-175.569809
-176.6454468
-177.5092316
-180.8866119
-184.576004
-187.6389008
-191.8204346
-195.4984436
-199.5398407
-203.2384338
-206.1259613
-207.5018616
-209.5147858
-212.6063232
-216.6802826
-219.9188232
-224.9517059
-229.1782379
-232.5488434
-237.1624603
-241.8111725
-244.5206299
-247.9078369
-251.1446228
-253.1510162
-255.709137
-259.7443848
-264.2527161
-269.6195679
-274.8215332
-279.4800415
-285.6063232
-291.4729309
-299.0210266
-306.7554321
-312.9165344
-319.8963623
-327.9068604
-334.2556458
-340.6786194
-348.0327148
-354.8651733
-361.1326904
-368.8398438
-374.7869873
-382.468689
-387.5037842
-392.8573303
-396.664856
-402.9750671
-409.7890015
-416.1870728
-422.8190918
-428.4822693
-435.7639465
-441.9332275
-448.7026367
-453.9850464
-459.9292603
-467.121582
-475.3455811
-485.8526001
-496.6638184
-509.2539978
-521.3067627
-533.0577393
-543.12146
-551.1002808
-556.4863892
-558.902771
-563.1350098
-566.7843018
-568.8519287
-569.0333862
-569.2644043
-566.6495972
-563.9077759
-558.6779175
-552.6506348
-544.3578491
-536.1521606
-529.12854
-521.6300659
-516.5383301
-512.4956055
-509.7073975
-505.5216064
-500.3253784
-495.5862427
-489.9117432
-484.0177612
-479.403717
-473.3201904
-467.7344971
-462.8278503
-458.7250977
-456.0426025
-453.1700134
-451.2753296
-449.3577576
-447.4434509
-446.6737061
-445.7088013
-444.7504883
-443.9679565
-443.2451782
-442.6531067
-443.6472778
-446.7744141
-450.2466125
-454.0130615
-458.7099915
-463.6112061
-470.030304
-474.2921143
-478.7928467
-482.5634155
-486.4487305
-488.5963135
-490.8404846
-493.4707031
-497.5371704
-500.5609131
-503.6566772
-507.3759766
-511.1072083
-512.7321167
-515.2891235
-518.3094482
-520.0873413
-522.2744141
-524.9158325
-527.0602417
-530.2282715
-532.5649414
-535.1810913
-537.7315063
-538.7329102
-540.2625122
-541.2680664
-540.8187866
-540.7791748
-536.2567139
-534.5588379
-530.6554565
-525.305481
-520.0768433
-514.2568359
-507.3460693
-500.1077271
-489.9675293
-478.6104431
-466.2659912
-454.5077515
-441.1250916
-429.3617249
-418.2857056
-408.2739868
-398.3214417
-389.6156006
-383.0365601
-376.6585083
-370.0764465
-369.648407
-367.6836853
-366.7463379
-366.7362061
-368.3061829
-369.7401733
-374.2152405
-377.6391602
-381.2729187
-383.8227539
-389.8305664
-396.1341553
-404.1454468
-411.3996582
-418.5188293
-425.9593811
-433.6480103
-440.6481628
-447.6869202
-453.8088379
-458.2973938
-464.1773682
-466.7827759
-472.0583496
-474.8389893
-477.1152954
-480.1025391
-483.5068359
-486.2487183
-487.0884399
-486.1884155
-483.2169495
-480.2984009
-475.8966675
-470.6635132
-466.2786865
-462.3565674
-459.6172485
-455.4355164
-451.7682495
-449.0846558
-446.0131836
-444.0521851
-441.2547607
-437.8273621
-434.7591858
-432.2322693
-430.2760315
-428.4423523
-426.811676
-427.1190796
-428.7084961
-429.7566223
-431.2526855
-433.3261108
-434.1796265
-436.0037842
-437.1095581
-439.8253784
-442.1629639
-444.9495239
-448.109314
-451.8380737
-456.885376
-460.8097229
-465.4501953
-469.8500977
-474.4342041
-478.3215637
-482.7428284
-487.4632263
-490.9434509
-494.7163086
-496.2125244
-495.9376831
-493.0404663
-488.1099243
-482.9772644
-477.574707
-470.45578
-461.9631348
-452.0108643
-443.2962036
-431.3778381
-418.0206299
-403.5048828
-389.7579346
-373.2850037
-355.2625122
-335.4579468
-317.1002502
-293.4376831
-268.2203674
-237.5041504
-207.6564331
-165.4255524
-117.5363388
-58.11764526
2.395797729
60.03701782
111.022583
161.8655396
212.753479
264.2868652
311.4837036
346.0444336
358.5372925
342.7853394
286.1738281
232.285614
184.5057678
144.6919861
129.6456299
101.0228271
97.83712769
80.70854187
83.84503174
76.31864929
73.04510498
71.23350525
67.57629395
66.85865784
65.49032593
60.18759155
54.23974609
48.73162842
41.39647675
33.4781189
24.6813736
15.37752533
4.545059204
-4.37682724
-14.29552841
-24.15943718
-33.39733124
-39.19274902
-43.13658524
-44.82368088
-47.41102219
-46.9997406
-43.70674133
-41.13523102
-37.07809067
-33.95313263
-32.03339005
-31.7546463
-33.10182953
-35.47489929
-37.85488129
-44.98516846
-49.19802856
-58.79092407
-72.55050659
-89.77073669
-108.7851257
-128.1756592
-148.6411743
-165.3855743
-175.9459839
-182.0650635
-187.8494873
-186.2156982
-180.398407
-174.1527405
-166.9465942
-161.1895752
-161.7451782
-160.5101013
-160.6329651
-161.9086914
-161.3190613
-159.5997925
-154.4391479
-147.1264954
-134.1932983
-124.3800659
-110.0099487
-95.19650269
-77.43963623
-60.70739746
-43.18585205
-24.83280945
-8.890686035
8.337158203
20.83763123
34.95201111
48.50183105
61.79469299
73.26625061
87.72021484
101.8713226
116.1087952
129.2086182
142.4173279
154.8184052
167.8923798
184.4828339
197.8455811
210.7771912
224.7759399
239.2340698
255.4809723
271.2236328
287.8861694
304.0418701
320.1793213
337.0886841
351.3667908
366.6777649
381.9419861
396.7891846
410.7790527
427.2077026
440.6196899
454.7412415
468.4211731
482.0424805
496.3002319
509.5861816
522.989502
534.989502
545.9906616
556.4830322
566.3481445
576.6188965
586.0922852
595.3922729
604.5758667
613.4276123
623.5360107
632.2966309
643.0373535
652.9269409
663.6862793
673.5640869
683.2836304
693.2340088
704.442688
713.5683594
723.0443115
733.1525879
742.7054443
751.0527954
760.6048584
769.3254395
775.6984253
783.1582031
789.973877
795.6364136
798.9951172
801.3439331
803.5671387
806.8840942
811.0097656
813.7016602
817.6899414
820.343689
824.1906128
825.8734741
827.2241211
829.5402222
833.5821533
836.9327393
841.2071533
847.4902344
854.6710205
860.4776001
867.4994507
873.2624512
879.0597534
884.8583984
889.6021729
894.6446533
899.4813232
905.9118652
911.4561768
916.7896729
921.0571289
925.0801392
928.5675049
930.2550049
932.8822021
934.9040527
936.8511353
938.2984619
938.5030518
937.4213867
937.3340454
935.8040771
936.0673218
937.4840698
937.8026733
938.2164917
939.3904419
939.2921143
939.7553101
939.2658081
940.1084595
942.4725952
945.104248
947.1706543
948.6826172
951.7484741
954.8442383
959.3861084
964.4088135
968.0053101
974.3487549
979.7831421
986.3856812
993.4367676
999.9482422
1004.792847
1008.625854
1014.02356
1016.296753
1017.192993
1016.35144
1015.355774
1013.120728
1011.736633
1009.527466
1004.631104
1001.804565
998.6657715
995.1559448
990.4134521
986.2514038
982.6464233
979.7875366
976.8751831
972.828125
970.4951172
969.7757568
970.6567383
970.0483398
970.0474854
969.5391846
970.6124268
970.0596924
969.3025513
969.5061035
969.8015747
973.5281372
977.4243164
983.5184326
988.2377319
994.3036499
999.6591797
1007.897339
1018.938843
1029.85498
1041.36499
1052.12561
1060.946045
1070.656738
1080.398804
1089.008789
1090.680786
1088.421143
1084.599854
1071.088379
1054.822021
1042.184814
1030.989258
1031.130127
1037.419312
1039.551758
1041.245117
1021.52002
987.3655396
954.8588867
941.3692627
964.5703125
1012.84729
1063.75415
1097.300537
1112.172241
1117.373535
1121.487793
1120.423096
1112.543701
1096.436768
1078.881104
1067.459106
1056.77417
1038.382324
1018.822937
995.8215942
974.9056396
952.1746216
927.2296143
904.1236572
880.6105347
857.859314
836.1850586
813.3696289
790.5645752
766.526001
745.357605
727.1861572
708.5639038
692.7377319
676.8366699
662.6812744
650.486084
637.741333
627.7714844
619.8862305
612.7653809
606.8499756
600.3684082
594.4801025
587.8947754
578.8458252
568.2896729
558.8728027
546.3842163
535.2054443
517.9353638
501.211731
478.9295044
455.7814636
431.6821899
408.5447998
385.4869385
363.2454529
343.1180115
324.6326294
325.1429138
360.4066162
413.338562
472.8912964
517.9343262
545.315979
558.9080811
563.7990723
564.5005493
558.1449585
539.1525879
498.3596802
432.7826538
340.2689514
252.9191437
196.2648315
139.4622498
106.897934
79.20994568
71.19552612
58.17318726
53.21012878
45.64924622
39.70343018
33.39451599
28.65708923
24.38604736
20.15248108
12.85925293
5.846878052
-2.672134399
-11.71626282
-22.96281433
-34.12115479
-51.35237122
-70.65432739
-93.68496704
-116.6483917
-137.7719727
-161.3590088
-180.7075806
-200.8540649
-211.3111572
-217.792511
-217.9742126
-216.1851807
-215.7799988
-217.5942383
-223.960144
-234.0941162
-248.2799072
-264.6271667
-282.7941284
-301.9201965
-315.0168762
-317.2454224
-323.1790466
-321.4257202
-318.9892578
-311.2644043
-304.45047
-295.6850891
-288.5232239
-281.657074
-273.2047729
-264.8532715
-257.7865601
-251.5848389
-246.4891815
-246.1837006
-245.6468506
-246.7425537
-249.1046143
-252.4615936
-256.6914063
-260.3301697
-263.0869141
-266.0836182
-269.6043091
-276.4888611
-283.9062195
-290.3227539
-297.1497803
-303.191864
-308.7541504
-312.7280273
-318.1517334
-320.563324
-323.7080078
-327.1825256
-327.5444031
-330.4876099
-330.7822876
-331.0866699
-330.3877869
-327.7167969
-324.2523804
-320.4618835
-317.795166
-314.17276
-310.1100769
-307.7998962
-305.3134155
-303.6863708
-301.6333923
-299.5499268
-297.8893738
-295.7503052
-293.4331665
-291.9761963
-290.3789673
-290.697876
-293.3907471
-294.5684814
-298.0144348
-300.6834106
-302.5803528
-304.5392761
-306.1394958
-309.0608826
-312.6329651
-317.1477661
-320.2304382
-323.6998291
-330.2357483
-337.3883667
-344.2366333
-352.0852966
-358.9108276
-366.6390991
-374.4185486
-382.2295227
-390.4942932
-398.5175171
-407.5198364
-416.9407959
-427.9559631
-437.7662354
-448.0306396
-456.4994507
-466.9561768
-477.9250488
-489.5621033
-500.6680603
-511.4679565
-523.5380859
-537.7087402
-548.6427002
-558.5599365
-568.7460327
-578.1903076
-587.7601318
-596.0703735
-602.600708
-609.494751
-615.5893555
-621.6392822
-625.7067871
-628.4946289
-630.1346436
-631.692749
-631.7557373
-631.973938
-632.9285278
-632.5634155
-632.7370605
-634.3822021
-633.9415894
-633.852356
-633.1851807
-631.645752
-629.6118164
-628.6647339
-627.2424927
-625.9594727
-624.1697388
-623.4988403
-622.4713135
-621.041626
-621.0397949
-617.8148193
-614.0482178
-611.0646362
-607.8371582
-603.4882202
-601.2745972
-600.2223511
-598.3156738
-597.2610474
-596.0846558
-594.9897461
-594.5635986
-594.4005737
-591.3619995
-589.020813
-587.3479004
-586.703186
-585.2630005
-584.1765137
-583.9961548
-587.6699829
-592.1037598
-595.7628174
-597.515625
-600.0803223
-601.6276855
-603.6902466
-605.3200073
-607.8024902
-608.8231812
-611.9335938
-614.3931885
-617.5048828
-622.0684814
-625.8632813
-628.7286987
-630.5786133
-633.1502686
-637.0081177
-639.5618896
-642.0917969
-643.9174194
-643.9840088
-642.9468994
-641.347229
-638.2342529
-634.9605713
-630.8487549
-624.5428467
-619.7801514
-617.0126953
-614.24646
-611.645874
-610.8913574
-609.7694092
-609.7036743
-608.4922485
-607.5907593
-608.6322632
-611.553772
-615.4101563
-619.0845947
-623.6765747
-627.0824585
-629.4870605
-632.5554199
-633.0116577
-632.3760986
-631.0872192
-625.6384277
-622.4719238
-618.3862305
-613.7116089
-607.6453247
-601.2072144
-593.8850708
-585.9783936
-578.3153076
-570.0844727
-561.8807373
-552.9301758
-543.4440308
-534.5838013
-527.7558594
-520.947998
-514.9113159
-509.6017151
-504.2423706
-498.0760803
-493.0664063
-485.8494263
-479.60672
-474.210083
-468.3088379
-464.9208984
-459.7169189
-455.9943237
-453.8668518
-452.1281433
-451.7344971
-449.5811157
-447.0612183
-443.8095398
-439.5568237
-436.5236511
-434.444458
-431.5552368
-428.2514038
-426.5118713
-424.606781
-422.7051086
-420.2146301
-420.2125244
-420.0605164
-420.2965698
-421.4778442
-422.4892578
-422.5508728
-423.4388428
-422.8728333
-422.6070251
-422.9095764
-423.2454529
-422.3513489
-420.341217
-419.1298218
-418.1763916
-414.6706238
-408.4647827
-402.1148071
-393.6843567
-384.1420593
-375.2582397
-365.5488281
-358.2913208
-350.3843384
-341.5977783
-332.9870911
-324.33078
-315.0548706
-302.4442139
-290.9927368
-278.8285828
-268.1914673
-254.2447052
-241.1798248
-224.2925262
-207.8788757
-193.9638977
-175.9375458
-165.7163696
-158.2318878
-155.3625793
-156.8655701
-146.0442505
-127.5325928
-49.85818481
54.97076416
169.5459595
241.8959961
245.4631653
190.1775513
111.881897
28.46716309
-59.33991241
-159.4970398
-265.5466919
-356.6347046
-416.2106934
-402.9398499
-388.7064209
-345.9382019
-313.967865
-287.4251099
-262.4660645
-256.5241699
-241.7033691
-235.3985901
-224.6951294
-222.1138916
-216.9810181
-213.5560303
-209.9828644
-204.5735779
-200.3649139
-194.214035
-187.9122009
-181.7691345
-176.3856506
-171.6288757
-166.3141937
-159.9254761
-153.8622437
-148.745575
-143.1273804
-134.7206879
-126.5578079
-118.9224014
-111.8116913
-104.9304504
-97.58959961
-91.27545166
-85.43244171
-79.06853485
-73.09011841
-66.40880585
-60.62065887
-54.63685608
-48.9694519
-43.7061615
-40.16825104
-35.23698425
-30.65242004
-24.47896576
-19.23740387
-15.09143829
-13.03787231
-10.85581207
-8.849945068
-8.312187195
-7.331497192
-6.036720276
-4.413024902
-3.274520874
-1.237442017
-0.102088928
0.986038208
1.62979126
1.87677002
1.887535095
2.14352417
3.196411133
4.561248779
6.527076721
9.578323364
11.56893921
15.2713089
20.24880981
24.09863281
28.71148682
34.65267944
40.90167236
48.11598206
55.29925537
65.42776489
76.67030334
87.10562134
98.29899597
107.0437927
116.2351227
123.9915924
132.5455017
140.4134827
149.071991
157.6224823
167.3249207
183.8769836
203.9102173
224.2528381
240.1332703
251.2352905
255.5599976
250.7580872
230.8888855
209.6596375
180.12883
156.2428741
136.9133759
117.0519104
100.9685669
81.21391296
71.61683655
58.33255005
49.48543549
40.61044312
35.32685852
29.75449371
25.42448425
22.66368103
19.66184998
15.37945557
9.744773865
2.602859497
-3.949279785
-9.643867493
-14.75861359
-19.1205368
-21.27028656
-23.93782043
-25.58221436
-28.59782791
-32.09366226
-37.22901154
-44.07962036
-53.65872955
-60.74964905
-70.34695435
-80.50308228
-90.74869537
-103.4754868
-115.9940948
-127.0910492
-140.9696808
-156.75177
-171.0697021
-187.2294922
-202.3768921
-217.687561
-231.1154633
-243.729599
-253.6766815
-265.0281982
-273.8261108
-283.0848389
-290.1582031
-296.7936707
-301.4754028
-305.1333618
-308.3664856
-310.6707458
-313.8278198
-315.7496033
-317.1299438
-319.4136353
-320.4627075
-321.7313538
-322.6549072
-322.2865906
-321.0458374
-318.7930908
-316.961853
-315.6444092
-314.1976929
-312.230896
-309.9882202
-309.2240601
-306.871582
-305.7570801
-303.240387
-299.4936523
-293.3754883
-288.5602417
-281.5142212
-273.5910339
-266.0296631
-255.0581665
-246.7875061
-237.44841
-228.7637482
-218.937027
-207.2105408
-196.4565125
-186.9732971
-178.4070129
-171.5459137
-167.6694641
-163.5246429
-159.691803
-156.9222412
-153.1019287
-150.3559875
-149.5918427
-148.2482605
-145.7312927
-144.7695923
-144.1821442
-144.0543671
-144.471817
-145.377594
-147.2311096
-150.2762451
-153.9614258
-156.2649231
-158.1920319
-159.5305939
-161.1318359
-163.050415
-164.6775665
-166.3328857
-170.0412903
-172.5119476
-175.3157043
-178.3816833
-180.8231201
-184.3834229
-186.1349487
-187.9465637
-190.1264343
-192.5751648
-194.399353
-197.3790131
-198.5827637
-199.6181335
-200.1891937
-201.8491821
-202.1807098
-203.3279114
-203.5554962
-203.3300476
-203.7973328
-204.409668
-204.6754456
-203.9089966
-202.3399353
-198.682312
-195.3163147
-191.90802
-187.0638123
-182.100647
-177.9574738
-172.5106354
-166.541748
-161.3463745
-154.3930511
-148.2179565
-140.3395081
-130.2328033
-122.3001251
-113.9174271
-105.110405
-96.37493896
-88.1416626
-80.89572906
-75.68428802
-71.25295258
-66.33592224
-61.18442154
-55.48654556
-51.25336838
-47.78263474
-42.22089386
-38.53350067
-36.3259201
-33.64984131
-34.07493973
-35.89657974
-37.45936584
-41.09673309
-44.80808258
-48.38909531
-49.66944885
-52.23403549
-55.85302353
-57.9207077
-60.21251678
-61.69826889
-65.22480774
-69.92784119
-74.04929352
-76.85835266
-80.51870728
-84.13249207
-86.06233215
-88.32917786
-89.6895752
-88.25590515
-86.80280304
-84.56091309
-81.9827652
-78.85153198
-75.2272644
-72.65515137
-70.14128113
-67.56102753
-66.03251648
-63.14220428
-61.11438751
-57.74357605
-52.13918304
-46.94735718
-40.63796997
-35.64746857
-32.77207947
-31.59228516
-30.84986115
-29.04743958
-24.47207642
-19.66083527
-12.28538513
-12.36756134
1.572563171
19.61011505
45.16521454
70.97458649
89.87831116
109.313858
141.0823669
181.9838257
227.7855225
276.5537109
343.2840576
423.1784058
502.9448547
568.7855835
599.5797119
573.6634521
513.1229248
418.7994385
314.5189209
233.9714508
161.8145447
137.9136353
109.8978653
116.3423767
109.4670181
115.1772308
120.6861115
129.0585327
137.1444092
141.1557159
145.8961334
147.3079071
150.1216736
149.1149902
148.3941193
147.8970947
147.4721832
147.7494659
147.1533203
145.9165344
145.8367767
145.0002747
144.9994354
145.9801331
149.0148926
151.2492981
155.2596588
158.78479
164.1300964
169.7794952
174.0400085
177.5029449
180.8123169
184.7661896
187.77948
192.6243439
197.5862885
203.6822815
206.8859406
211.2507324
214.184021
216.3416443
218.2151489
220.0534668
221.9179077
224.362915
227.2648468
229.6187744
232.0830078
233.8265076
236.0832977
238.5808868
240.013504
241.2685242
242.6113892
243.716156
244.9656677
246.4558105
246.900116
248.5198364
251.4223022
252.6785736
255.2661591
256.5198364
258.1281128
261.6224976
264.6975098
269.1254272
272.5496826
277.7756958
282.7307434
288.1739197
294.5477295
301.2390442
308.8778992
314.7819214
321.5643311
327.6248169
332.4441833
337.1205444
341.0440369
343.9230347
347.5606995
349.4656982
351.4877319
353.9435425
354.9234009
355.5125122
355.8035278
356.2318726
355.6174316
355.5325928
358.2874146
361.1723022
362.1011963
361.962738
360.9044189
359.0773926
356.3123474
354.9285889
351.7020264
348.473053
344.7735291
339.94104
334.2353516
326.5239258
319.3796997
311.0018311
302.920166
294.7866211
285.7030029
275.6820068
267.3074646
259.7047424
249.817276
239.6366272
229.1706238
221.1582336
212.633667
204.2745667
197.1315765
191.1882629
187.3460083
183.2102509
176.3656006
170.5910339
165.1248322
159.8751831
155.9294586
151.6691589
147.5275574
143.8411865
138.6748657
133.0032349
126.9686432
121.6986923
115.9870758
111.7051239
108.1334
104.7254105
100.4873428
96.88315582
92.64463043
88.26699066
85.58065796
82.64669037
77.30448914
72.29466248
66.42183685
59.69077301
54.51556396
49.062397
42.89865494
35.39623642
28.00233841
21.36470413
12.13270187
4.363677979
-3.636703491
-12.3817215
-19.98905182
-28.67887115
-37.5464859
-46.01379395
-57.04293823
-65.48348999
-74.25128174
-82.31307983
-88.5451355
-94.09779358
-98.07992554
-101.7679901
-105.8969727
-107.9512787
-109.5281525
-109.8488464
-111.0352783
-111.9763489
-112.0315247
-112.0576324
-111.5476074
-109.2040863
-106.0752106
-101.4081116
-96.97370911
-91.01539612
-85.02401733
-80.38128662
-75.60604858
-71.78276825
-67.83641052
-64.79548645
-61.33943176
-57.61608887
-55.24276733
-52.36187744
-51.41468811
-51.62783813
-51.22961426
-52.59767151
-53.04226685
-55.13147736
-59.36198425
-64.66378021
-69.47586823
-73.39699554
-77.12794495
-82.50158691
-85.51520538
-87.13801575
-87.53118134
-89.43560791
-87.26785278
-82.98519897
-77.60810852
-72.18074036
-67.00456238
-61.0950737
-54.13106537
-50.7518425
-47.01171875
-44.93972397
-44.71405792
-45.47483063
-47.96780396
-51.30250931
-58.54807281
-68.05541992
-75.33883667
-82.75328064
-90.52386475
-98.78201294
-106.2937088
-113.5732117
-119.0761185
-121.27034
-123.8805237
-126.882103
-126.8790131
-125.7856293
-124.5071716
-121.9062958
-118.4463806
-112.9468384
-108.2032394
-101.5210419
-94.65869141
-87.90328979
-81.12201691
-76.59689331
-70.49298096
-65.82666779
-61.75918579
-56.47761154
-49.38716507
-41.84557343
-35.51663589
-29.41928864
-21.00365448
-14.42105865
-6.851806641
-0.047225952
6.092735291
13.25901794
21.66670227
30.4883728
36.6628418
41.12834167
43.60055542
43.79483032
41.64237976
36.19178772
29.3991394
23.21102905
13.10281372
3.225769043
-8.241371155
-22.07429504
-35.09846497
-48.86032104
-61.4601593
-72.15947723
-83.38617706
-92.30050659
-101.8979492
-109.0726547
-116.5670624
-122.7478104
-129.1479492
-131.5950317
-135.6031647
-137.2753906
-138.4449158
-139.0055695
-140.1725159
-140.6617279
-140.3925018
-142.8535461
-144.4942474
-145.2143707
-144.9425964
-144.228302
-145.4850006
-145.6098175
-150.4463043
-155.5866089
-161.9694214
-166.2595825
-173.7624817
-180.4443359
-190.5289001
-201.2112579
-209.812439
-221.3735046
-221.8059387
-222.2575684
-213.1669922
-196.1345673
-166.3555908
-131.3935547
-111.8166046
-102.2036438
-94.53179169
-62.62030411
-13.23810577
44.50257874
104.3451233
159.6800842
190.4411011
180.5762939
136.8462372
78.85702515
19.92776489
-54.68541718
-158.0824585
-282.5061646
-388.8847961
-428.7922058
-444.7569275
-399.3457642
-367.0185242
-324.1497803
-285.8158569
-278.0265808
-262.0593262
-260.692749
-255.1932678
-260.7915039
-262.1170044
-269.4320984
-278.3043518
-285.5424194
-291.6593018
-293.947052
-297.5128174
-299.4359436
-300.5153503
-302.5177307
-303.8096008
-306.2678528
-308.698822
-310.3987732
-310.2939148
-310.4425049
-310.6671753
-311.3682861
-311.4832153
-312.2155151
-315.2279968
-317.0512085
-318.5212097
-320.0465088
-322.3223267
-323.5637207
-324.7912598
-324.1881409
-322.9837646
-321.4226685
-319.5336914
-318.9914856
-318.0282593
-316.7637634
-315.2028503
-312.521637
-309.6490784
-304.8590088
-299.2841797
-294.8574219
-289.7769165
-284.9054565
-279.1381226
-271.1689453
-263.0326843
-254.6967468
-245.7263794
-235.7456818
-224.6681976
-211.8740082
-200.1933899
-188.6671753
-175.3439636
-163.6416626
-153.2829895
-141.7713928
-131.2329712
-122.5763702
-113.1143188
-104.0705719
-95.67015076
-87.71842957
-79.90250397
-74.13993835
-69.07516479
-64.32807922
-56.97920227
-46.75208282
-36.06770325
-26.37927246
-16.39353943
-6.557861328
6.522232056
19.28482056
34.07388306
49.56044006
65.92546082
81.96173096
105.6303101
131.3527832
156.2203674
175.662323
175.3400574
161.1581726
148.1420898
145.6081543
155.376709
177.2355347
201.1024475
219.9919128
230.9560852
209.9838562
194.3636475
167.152771
141.9435425
112.1339111
81.84384155
53.89367676
27.36248779
8.489868164
-12.8344574
-29.27671814
-46.62538147
-62.74613953
-79.35551453
-93.04104614
-105.9451599
-117.5595169
-128.7839966
-139.0184937
-150.2015686
-162.1472321
-174.2468872
-185.9825745
-200.2682648
-216.3226013
-233.9723206
-250.5522156
-267.1014099
-284.2024231
-300.5483093
-315.3062439
-327.4697571
-338.6307373
-346.9233398
-353.4615479
-359.3895264
-364.664856
-367.7623291
-370.3815918
-370.831665
-369.9429321
-368.4474792
-363.9073792
-359.5541992
-354.9473572
-351.4019775
-349.1040039
-348.3057251
-349.0759583
-349.9672241
-352.1783447
-354.1454163
-353.3627319
-354.1314087
-354.3421631
-358.6090088
-360.8055725
-363.7677917
-368.6575928
-374.053009
-377.8149414
-379.5537109
-381.6741638
-383.0542603
-384.3890381
-385.0839233
-385.7255859
-386.113739
-386.7763062
-387.0914001
-387.9120483
-386.5136414
-384.7863159
-383.109375
-383.0382996
-384.0247192
-383.2316589
-383.1529541
-383.4210205
-383.3532104
-384.2936401
-385.3926392
-386.7254028
-388.364563
-390.603363
-394.3603516
-395.1252441
-397.5754395
-400.8841553
-402.2787476
-403.1100159
-403.5718994
-404.5495605
-404.4990234
-404.0328979
-402.8470459
-400.3870544
-398.3301392
-396.329895
-394.4777222
-392.3444824
-392.5742798
-393.1941833
-394.1433716
-394.9154663
-396.3143311
-399.1324463
-400.056488
-401.2625732
-402.8171387
-406.1851501
-410.6378174
-414.2437744
-417.8742676
-420.0335083
-422.0674438
-421.9434509
-421.5576172
-419.9073486
-417.8286743
-416.5380554
-414.9202881
-413.3179016
-412.3004456
-409.4236755
-405.0523987
-401.6925659
-398.7438354
-395.4832458
-391.5964355
-387.1100464
-383.0722656
-378.9829407
-375.6643066
-372.4185181
-369.9890747
-366.8566589
-361.0357056
-353.7855835
-347.7600403
-339.4017944
-330.5274658
-322.171814
-312.6579895
-303.9807739
-294.8644104
-285.114624
-274.0877991
-263.471344
-254.165451
-244.4837952
-235.8934021
-225.9733582
-215.5681763
-204.7724915
-194.6893311
-184.1401672
-173.8788147
-163.2975159
-155.1217957
-146.0673523
-136.3459473
-126.9249725
-119.2282257
-112.2141724
-106.1264038
-100.5116272
-95.57009888
-90.95510864
-88.89772034
-85.61962891
-82.07696533
-80.88497925
-80.78361511
-82.39205933
-85.49513245
-89.30383301
-94.3527832
-100.5954437
-104.2374268
-108.0445175
-111.7240524
-115.6557617
-118.267601
-119.99263
-122.5397186
-121.9652863
-120.7536469
-120.585968
-119.9454956
-119.4186249
-117.7038269
-114.7179031
-110.3789902
-105.5942993
-101.921875
-96.98583221
-93.43887329
-88.62211609
-87.34185791
-85.9907608
-86.69051361
-85.35652924
-85.7231369
-85.89216614
-86.26548767
-88.13089752
-89.5493927
-92.97645569
-94.938797
-92.56616211
-100.6451187
-116.2114105
-147.9970856
-189.2763367
-232.5700073
-272.5379028
-232.5299225
-150.876709
-54.12792587
12.37098694
48.80703735
81.67155457
140.5346985
219.5763855
287.4919128
307.2868958
268.8707275
191.5235901
98.9899292
11.82833862
-72.70489502
-136.038208
-186.2918701
-214.7549438
-232.3748474
-228.0932159
-222.6041412
-209.1889038
-200.82724
-190.4656067
-181.4011841
-177.481369
-177.3748169
-182.3968506
-188.5588989
-196.552063
-204.6706696
-210.8679962
-213.7938385
-212.5307159
-208.8470306
-202.367981
-197.5327148
-197.2138824
-199.9460144
-204.274231
-217.9186096
-237.7123718
-259.8784485
-282.6539917
-300.3744507
-311.8789063
-310.8868103
-298.6246948
-276.848175
-248.8730774
-219.3331909
-192.3085632
-169.8953857
-149.7271271
-130.6689911
-124.2167206
-122.9789429
-129.1728058
-142.4505157
-158.0479126
-173.9087219
-181.9764404
-187.9534912
-186.6958313
-178.7714539
-161.963562
-146.9520264
-130.3995361
-113.7108154
-96.32307434
-76.45761108
-55.95414734
-36.00968933
-19.58268738
-1.647521973
14.73373413
30.4471283
45.78132629
62.98110962
80.73487091
98.16699219
116.4687119
133.6494904
151.6321411
170.8013153
189.4827576
205.0316162
221.3456421
236.9702454
255.3431549
272.7151794
291.204071
310.9021912
329.776886
347.2210693
362.8358765
378.6999512
396.0875854
413.8518677
432.2321472
448.6803894
466.0419312
484.2825928
501.6749878
517.5331421
530.7041626
542.1863403
550.2229614
557.3551636
565.4233398
565.4942017
565.0661621
565.0562744
564.2703857
566.3532715
570.31427
577.1946411
589.4414063
600.3183594
613.4758911
624.0272217
631.8515625
639.9666748
641.1152344
642.25354
641.7166748
640.6868896
637.267334
632.1848145
626.5427246
619.5015869
612.7333374
605.7514648
600.5715332
595.1724854
591.8216553
590.0975342
588.9754639
589.1668701
590.8035889
591.6768188
590.4561768
589.7599487
590.8230591
591.3399658
592.5478516
593.1704102
593.6967163
596.2091064
599.0797119
601.3793335
602.7620239
604.6772461
606.6254272
609.0119629
610.3823853
612.6373291
614.151001
614.8986816
614.9363403
615.0229492
615.2755127
615.5668945
615.8977051
616.7456665
617.0686035
617.3588867
617.0950928
616.5464478
615.9468384
616.4567261
616.2055664
615.8007813
618.524292
620.8901367
621.7074585
627.1361084
632.869812
638.9440308
645.3048706
653.189209
660.5797729
668.2301025
676.1756592
686.1796265
698.1789551
710.6027832
722.7938232
735.411377
748.0169067
760.1251221
772.3029175
783.6153564
794.2885132
804.2042236
814.9331665
824.1918945
836.0861206
844.3948975
851.3092041
854.9599609
856.9088135
858.1021729
858.7554321
856.1293335
852.2509155
851.6325684
853.4071045
860.880249
873.236084
891.510498
914.1903076
935.1311646
946.8747559
947.5472412
938.2671509
913.8699951
890.385437
874.8247681
868.6168823
869.0544434
874.0405273
886.8549805
913.1226807
949.741333
976.3598633
986.5604248
975.6670532
943.8939209
907.9433594
877.3135376
856.5773926
846.8113403
846.9490967
853.0389404
862.0115967
868.2776489
871.2988281
870.0424805
866.6177368
859.9521484
850.2930298
835.5383301
817.7178955
799.1418457
783.4291382
775.3519287
777.6848145
790.826416
812.0605469
842.8493652
881.2772217
921.5578613
952.3155518
967.4471436
956.7276611
934.2386475
896.6298828
849.8561401
808.6069336
773.0240479
751.8223267
732.5689697
730.5576172
726.3363647
729.6228027
731.6790161
734.9853516
736.6082764
737.3233643
738.2947388
736.9105225
735.0181885
730.8691406
724.5750122
716.8536987
710.4614868
701.7861938
693.2032471
684.8449097
675.5146484
665.854126
654.7628784
643.0645752
630.8327026
618.656311
607.1494141
593.6790771
581.7536621
568.5440674
555.2565918
541.6572876
528.9223633
516.9160767
505.9413452
497.5047302
490.7587891
484.1511841
480.1759033
480.0280151
480.539978
480.5610962
482.3264771
484.3189697
485.9649048
489.5958862
490.2007751
488.6469116
484.749939
480.7797852
473.1072083
464.5262451
451.8106079
436.456543
421.9231262
406.3463745
391.6918335
375.816864
363.6577454
350.5713806
342.0406494
332.548645
328.7009583
327.5113831
333.1456909
342.8358459
352.4690247
357.9092102
361.6600952
372.2932739
412.1333008
470.776062
527.7233276
558.3879395
567.2202148
578.4237061
595.7427979
603.8647461
590.7056885
553.3023682
485.6893311
392.0255432
288.6595154
187.7654572
91.48893738
2.915039063
-60.0071106
-65.24594116
-59.66387939
-16.93551636
15.89910889
43.08738708
67.15005493
72.82550049
87.21343994
89.54911041
92.95039368
83.1441803
78.96129608
68.21269989
58.98082733
49.76713562
39.95101166
30.71270752
22.59181213
13.23208618
4.744506836
-5.491027832
-13.0123291
-19.16114807
-25.57862854
-31.70529175
-38.30545044
-44.11317444
-50.01234436
-56.13978577
-62.83880615
-69.50195313
-76.58837891
-80.64819336
-85.62321472
-91.10076904
-97.06684875
-101.4354553
-103.7588196
-106.6529999
-110.5262909
-114.2089539
-116.6482391
-119.3145905
-120.917923
-121.8614349
-122.4979248
-125.6889191
-128.3956299
-128.7515259
-129.2488251
-127.8336182
-126.4782257
-127.6200256
-128.9798126
-128.7981415
-128.4560699
-128.4844055
-128.4076538
-127.341835
-126.4816666
-126.244545
-125.943634
-124.6508636
-123.3581238
-122.4789505
-120.3175583
-119.3307114
-117.6766739
-115.4275894
-111.5332031
-107.234436
-103.7783508
-98.61631012
-93.66627502
-89.30361938
-85.16768646
-81.37995911
-76.83474731
-71.93782043
-67.32769775
-63.9969101
-59.29733276
-54.83924484
-51.7945137
-49.2799263
-46.54666519
-44.78211594
-42.94949722
-41.54021835
-40.10467148
-39.13446808
-39.69955444
-38.19400787
-36.90617371
-35.40168762
-35.98267365
-35.77788544
-37.60588837
-39.01850128
-41.92205811
-45.29521179
-51.51394653
-56.47137451
-62.16747284
-67.53115082
-71.95888519
-77.56304169
-82.84033203
-89.68664551
-98.29167175
-107.931572
-117.9675598
-127.6785431
-137.8311768
-147.9347534
-157.0227356
-167.1317444
-174.8660583
-182.3894501
-189.688446
-196.4871216
-204.3448486
-211.6327362
-217.3380432
-223.7319336
-229.4130859
-234.7074585
-240.9444885
-246.6073761
-250.3443146
-254.2350769
-258.7923584
-260.4632568
-262.647583
-265.0024109
-267.8598633
-269.9598694
-272.0089722
-274.1578979
-274.9327393
-275.0039063
-275.5713806
-275.255249
-275.3129578
-274.8743896
-273.6560364
-271.6402893
-270.2780457
-269.4336548
-267.678772
-264.5803223
-262.1401367
-259.3066711
-255.8137665
-251.906311
-248.8624573
-246.5186462
-242.8231964
-238.6921692
-236.0073853
-235.2744751
-234.4806213
-232.3200531
-229.5050507
-227.2094421
-225.714386
-222.9341125
-221.416214
-219.7290497
-218.7978516
-217.5698853
-217.6188354
-216.8895569
-215.8156128
-216.3919983
-215.8806152
-214.4807739
-212.796814
-211.3901367
-211.0394592
-210.9332886
-210.8769226
-210.6912537
-209.7854156
-208.5300903
-207.1545715
-206.0630951
-203.9673462
-202.865036
-201.9901733
-200.8607788
-199.3530273
-197.1389923
-195.0373077
-193.2597961
-191.3508453
-190.8986664
-190.6314697
-190.0183258
-190.2781677
-189.8539734
-189.8851318
-189.9026489
-191.1898346
-191.8763733
-190.2648468
-189.8452454
-188.8742371
-187.2726898
-185.9156799
-183.1022491
-181.271286
-179.6271973
-178.4750061
-177.6775513
-176.5932617
-176.3896332
-175.6574402
-174.6764374
-174.2415161
-173.5661316
-171.1881104
-167.7433777
-164.6329193
-162.7891541
-162.1394043
-161.6676788
-160.9665833
-161.0536499
-160.8320618
-160.6639099
-160.0713196
-156.7903137
-153.3490143
-150.4470367
-146.523468
-144.2636414
-141.9957886
-141.0700073
-140.0825043
-139.059845
-139.5914154
-138.897583
-137.4844055
-135.7422791
-131.8545532
-127.1201019
-124.1877136
-121.9038391
-119.7884521
-117.9555359
-117.5857239
-115.7931061
-114.3039856
-113.4700699
-111.5880737
-110.4481506
-108.5734406
-106.6260986
-104.4778824
-102.3898926
-100.5132599
-100.0844574
-103.1823654
-104.7339172
-106.3493576
-106.6419373
-107.8730164
-109.4589539
-110.3013535
-111.2541199
-112.1941986
-113.5086823
-116.3934708
-121.0214539
-125.649147
-131.6963043
-137.5533447
-141.7731018
-145.6335449
-149.0713043
-152.0570374
-155.6769562
-159.1925507
-163.2315063
-166.1413116
-170.0083771
-171.851181
-174.4243164
-174.1900177
-172.957489
-170.5909424
-168.5009613
-164.4937744
-159.5603943
-156.4873047
-152.8071136
-147.5680847
-143.839035
-138.4104156
-132.7567749
-126.3886642
-118.1037598
-109.3386688
-100.8479309
-96.26874542
-90.88331604
-86.9699707
-81.06442261
-77.52815247
-77.25983429
-72.33633423
-62.86107635
-33.5717392
13.25720024
75.93108368
149.4275208
225.585968
300.1440735
361.6028748
399.7485046
407.5212402
387.3812866
340.4863892
270.3253784
181.3766174
89.10816193
11.67351532
-43.51160812
-85.60932159
-90.50396729
-90.25135803
-68.8444519
-55.94100189
-36.41286087
-14.79687881
1.32699585
17.98027039
31.10527039
45.40574646
54.86600494
64.87954712
71.07870483
77.35982513
81.23681641
86.34679413
91.60951996
96.13092041
99.76649475
101.9148178
103.1457977
103.84021
104.8090744
104.2159653
103.9318924
103.8908997
103.4835281
104.7680893
106.9151001
107.4534073
108.3984756
110.2508163
112.6375198
113.898613
114.2671738
114.9785156
116.2536774
117.6356659
120.1904831
121.5588837
121.8888626
122.7890396
124.6867676
125.7052383
125.7977753
124.7227249
122.9533386
120.7844696
119.7092133
119.4700546
116.4960022
115.6339951
114.5413055
111.8572693
110.8971252
111.2649841
112.1616135
112.561264
114.5555878
115.4952698
115.6484375
114.8738403
115.3041534
117.2895508
118.8042908
120.6393433
120.9155045
119.5965195
118.2329483
116.8784714
116.3616867
114.633316
114.2344742
113.2382965
112.327507
110.7355804
109.4306183
108.2398834
107.8865509
107.4777069
106.353096
105.3385849
103.1866455
101.4955139
101.0238419
100.918808
102.8997345
103.9471283
104.4718094
104.8728714
105.5372772
104.6230164
103.5347824
100.3225784
96.92545319
94.50144958
92.12461853
89.56884003
85.893013
84.95095825
84.75623322
84.17695618
83.01908112
81.29743195
77.54257202
73.48677063
68.59233856
63.92474747
59.75593567
56.30288696
53.53965759
50.13269806
46.92225266
43.4605217
38.82798767
34.73061371
29.30054092
23.91428375
19.11034775
17.23413849
16.09033585
15.42517471
15.29601669
16.45685959
17.92046356
20.42853546
20.88509369
21.88032532
22.89334106
23.56103134
24.52174759
24.87696457
27.79077911
30.04829025
28.7987442
25.96978378
20.71165085
15.35365295
6.971221924
-3.355834961
-13.0111618
-24.02712631
-34.94174194
-45.01446915
-54.98981094
-65.48805237
-75.57836914
-86.81292725
-97.61965942
-108.7147217
-118.1712494
-126.4431381
-132.9894409
-140.3171082
-147.3012085
-152.5561523
-157.1066742
-160.4803467
-164.216217
-167.0383301
-170.7323303
-174.2965698
-177.5254669
-180.443512
-182.1888428
-183.4789124
-184.9493561
-187.250351
-186.182724
-186.2303467
-186.443985
-185.0195313
-182.6531677
-180.9748993
-179.211731
-176.9984741
-178.045517
-176.2077026
-175.2974396
-174.460022
-174.2605286
-173.2940826
-173.2135315
-173.5414886
-172.8925934
-172.8460083
-173.9252014
-176.5829315
-178.7464294
-180.5628967
-182.29245
-185.0928345
-186.3206787
-190.6182098
-192.8213806
-193.6879578
-195.7807617
-195.9363708
-197.7717285
-200.8327026
-203.0689392
-205.5266418
-208.6213837
-210.3056946
-212.0829468
-213.6956482
-214.122406
-213.1092224
-212.6220093
-211.2292786
-211.5406647
-212.0310211
-212.8940735
-213.1415405
-213.1298218
-213.362915
-211.4313049
-211.7593689
-213.0306702
-214.3965759
-217.0405121
-218.7762604
-220.3035583
-223.3398895
-226.2861786
-226.6690826
-227.7276306
-228.4255981
-227.4534302
-227.0678558
-227.5480042
-228.7449341
-230.3575134
-232.2268982
-234.8452454
-235.6452332
-234.5847778
-233.6034241
-231.4085693
-230.2347412
-227.7791138
-225.1054993
-221.531311
-218.7555847
-216.413208
-215.7972107
-214.9232788
-213.7266541
-211.982254
-210.7123413
-209.3658447
-206.8125916
-203.3922272
-200.145462
-197.0625763
-195.1938324
-194.3020935
-193.5744019
-192.6744385
-192.0331879
-191.7596283
-192.3687744
-192.0417938
-192.9561157
-193.4259033
-194.5346985
-196.2252655
-198.8938751
-201.2038574
-203.0339508
-204.1406708
-205.8414307
-207.1972046
-209.0227966
-211.8868713
-215.1730804
-218.7192688
-223.3692932
-227.5335846
-230.9811401
-232.6249237
-233.6688232
-234.5436554
-235.4369354
-236.0787354
-237.2164917
-236.9006348
-237.0826569
-238.5237427
-239.4325867
-240.2012329
-238.6557159
-237.3419189
-235.9340515
-233.7622986
-232.2194061
-231.2095184
-233.0627136
-234.1656799
-236.3842468
-238.4507751
-242.6967316
-244.7255249
-256.3809814
-266.5510254
-285.1916504
-307.5024414
-324.2240601
-335.528717
-331.3555908
-320.9586182
-299.9609985
-270.317688
-216.8794861
-143.0830078
-62.00448608
7.050094604
49.41845703
60.81253052
36.4563446
-5.962051392
-27.34449768
-5.17048645
45.69090271
94.10214233
111.7683563
96.29417419
54.08761597
-17.12440491
-113.016716
-222.6613464
-319.1865234
-362.213623
-391.907074
-358.7009277
-341.1430664
-307.4305115
-277.4613647
-257.3247681
-233.3381958
-219.1763
-203.385437
-200.2717438
-191.8006897
-187.6777344
-183.741333
-185.103775
-186.2574005
-187.7297974
-186.8841095
-188.4746094
-189.6896057
-192.3587952
-195.1340485
-198.4508972
-201.7954407
-205.7272644
-210.3407593
-214.2976379
-218.298584
-222.9258423
-226.866394
-229.4835205
-231.2781982
-233.0307312
-233.1223907
-231.6975708
-230.8452148
-228.1868286
-225.197113
-222.297699
-217.111145
-213.2589111
-208.4621887
-203.8365936
-198.6876373
-193.147644
-186.2322693
-177.882782
-170.5292053
-163.0010529
-154.1613312
-145.2734985
-138.0484619
-131.8946838
-125.1183472
-119.4572525
-114.9743118
-111.3735504
-107.1808701
-102.5445709
-99.88552856
-94.67192078
-91.54214478
-89.21054077
-87.0322113
-84.20695496
-82.08641815
-78.6741333
-75.6896286
-73.7614975
-72.2816925
-71.61423492
-71.52854156
-69.65630341
-65.47317505
-62.96608734
-61.09741211
-58.86018372
-55.56098938
-53.0990448
-49.4189682
-44.0541687
-40.87596893
-36.55294037
-33.7114563
-30.45133209
-27.53378296
-24.1612854
-21.09494781
-18.4812851
-16.41125488
-15.35778809
-15.79064178
-13.90764618
-11.78431702
-10.64206696
-7.484359741
-6.424911499
-7.073425293
-8.255409241
-9.400970459
-12.70040894
-15.86854553
-19.19332123
-22.47083282
-25.99677277
-29.80657959
-33.69919586
-38.74416351
-45.42524719
-52.24777222
-59.41729736
-67.35359192
-73.53629303
-83.1366806
-93.00927734
-101.3802185
-110.9797668
-118.8653564
-126.1934052
-134.4593658
-140.4230804
-145.6345062
-151.1670074
-155.5141296
-160.2887268
-166.3842163
-172.3892975
-178.1242065
-183.7126923
-189.7263184
-194.8826294
-198.4060059
-201.6751099
-205.4402466
-209.3611603
-213.9350586
-218.7190552
-224.4270325
-230.5159302
-234.3277283
-237.8594818
-243.1908569
-249.2809906
-255.6060333
-264.0244751
-270.6882935
-277.2836914
-283.8755493
-288.986145
-293.5361938
-296.8614502
-299.6293945
-301.1081238
-301.6640625
-301.7213745
-300.7754517
-298.473877
-295.1896362
-290.0827026
-284.6057434
-279.4490967
-276.8161926
-273.0361328
-269.8675232
-266.5888062
-262.7882996
-260.494751
-258.3040161
-257.6437378
-255.3866577
-255.394104
-256.1606445
-257.3544922
-257.5166931
-258.4129333
-259.652771
-260.9656982
-260.6012573
-260.8886108
-262.1047058
-261.4786987
-262.7580566
-263.6845703
-265.0375061
-265.750061
-266.398468
-266.6442261
-267.2432861
-266.8832397
-266.4026184
-265.0492249
-264.4607544
-263.5242615
-261.5822144
-260.0426636
-258.0911865
-256.0392456
-254.515686
-252.5493011
-250.6780853
-246.533783
-242.6581726
-239.5966492
-235.5658875
-231.3223114
-228.8475952
-226.2653809
-222.9538879
-221.7872314
-220.4104004
-219.8381348
-220.366333
-220.7391052
-219.7149963
-217.70047
-215.9629822
-212.8453979
-209.9228821
-207.5365143
-203.4876709
-199.7413788
-197.201355
-196.2943115
-193.1328888
-190.813797
-187.5559692
-182.3322449
-177.6181335
-172.2413177
-166.4333801
-160.5934143
-152.8512878
-146.1844788
-138.7688446
-132.540741
-128.453598
-123.5208893
-119.0910034
-116.1394196
-113.0829239
-111.2847824
-108.7347183
-104.6194305
-101.9195938
-99.49526978
-95.30747223
-92.02932739
-90.03514099
-89.19300079
-88.54611206
-87.07846069
-86.07546997
-85.73098755
-84.76595306
-84.33387756
-83.64849854
-81.81916809
-80.01527405
-77.07579041
-76.58457184
-74.61736298
-72.5221405
-69.74717712
-68.55023956
-67.74952698
-66.72536469
-63.8369751
-61.14043045
-58.27284622
-56.36851501
-56.41661835
-55.00576019
-53.29105377
-53.10397339
-51.95730591
-51.37839508
-51.15410233
-51.77616501
-53.41024017
-54.52053833
-56.15539551
-57.20129013
-60.20080566
-62.89183807
-66.86933136
-69.83895874
-72.68916321
-75.83390808
-76.6852417
-77.07513428
-79.96128845
-80.65072632
-82.29254913
-81.59649658
-81.12866974
-81.78567505
-81.46729279
-83.45529175
-84.92899323
-88.22550964
-90.82815552
-93.82763672
-94.01412201
-96.40389252
-98.42840576
-101.8010406
-105.2406921
-107.9220352
-111.3735199
-112.3693237
-114.9255676
-111.3184586
-109.2627792
-99.93315125
-93.1492157
-78.36215973
-61.27319336
-49.54462433
-43.40439987
-44.05997467
-49.54440689
-48.23884964
-32.52224731
4.919233322
57.63457489
125.4220963
197.3658752
269.9328308
328.33078
359.7697144
362.7885437
340.5947266
297.7680359
236.0570068
152.9064636
50.98174286
-47.23957825
-127.4924622
-156.1955872
-177.4635925
-149.1378632
-133.6732788
-103.473526
-82.69665527
-66.54844666
-47.06330109
-44.71083069
-33.16561127
-29.40232086
-25.36229706
-29.91108704
-29.25870514
-33.93132019
-38.40562439
-41.81541443
-46.85575867
-51.27167511
-55.43382263
-58.21020508
-61.03386688
-60.90228271
-59.61585999
-57.62046051
-56.72679138
-53.83554077
-52.78681183
-52.17764282
-50.05307007
-48.46385956
-45.78967285
-41.53806305
-38.92791748
-35.62185669
-32.6822052
-30.6452713
-29.01673126
-25.82702637
-23.89202881
-22.2342453
-21.07577515
-19.6068573
-17.4283905
-17.3014679
-15.46141052
-12.97618103
-10.27383423
-7.547424316
-3.484153748
1.07118988
5.093460083
7.769607544
9.173278809
12.87493134
17.33465195
21.98748779
28.80799484
36.12971115
43.240345
50.55883408
56.90093231
63.62704849
69.67533112
76.12232971
82.12388611
89.77349854
98.11876678
106.1519241
114.9482269
124.1317902
132.7026367
141.795166
149.1652527
156.6856995
163.4254303
169.8560638
177.6151123
185.1158752
193.9055328
203.3958435
212.6256409
220.5323792
228.7472687
236.0161133
242.2985229
248.0399628
254.052124
260.9315186
268.579834
276.6006165
283.9941406
290.8529663
295.0126953
299.6824951
303.2436523
307.6658936
311.5197144
314.8511047
317.789978
321.7988281
324.1175537
326.8562622
326.6296997
326.7011414
326.631012
325.5695801
323.6256104
318.3156128
312.826355
306.4274902
298.2781982
289.8609314
280.1647339
270.5754395
261.874176
254.3400726
246.0878143
237.9993286
230.2568665
223.3284454
218.2760315
211.4471893
206.1970673
201.5476379
196.4610901
192.3158875
189.3041382
185.9219055
183.3309326
179.9474335
177.5638733
176.0344391
173.6530151
173.0547485
172.1434021
170.730896
171.966217
172.1072998
169.7486267
168.9716797
169.3885803
169.1633453
168.3246765
167.237793
165.0088654
161.888916
157.7338867
153.4515991
148.9335022
144.1128845
139.6017761
134.6207123
130.370575
127.2978058
124.7455292
122.3907852
120.5571671
117.5155792
113.8787918
110.8615265
110.2571487
108.5403824
107.974144
108.9609833
111.2966614
112.9535828
114.4764328
117.897171
118.7366486
119.1519623
117.6588898
116.094986
114.699501
113.1938171
111.017395
108.9443893
107.1117859
104.3091278
100.6107788
97.08058929
92.01924133
86.55700684
83.41749573
80.2754364
77.27261353
75.48789978
74.26987457
72.16021729
72.02568054
71.43978119
70.52966309
70.68608093
70.43257904
70.18067932
72.00856018
74.31420135
75.73664093
76.80193329
77.50971985
77.19464111
75.17282104
73.08494568
71.9864502
69.65765381
67.69970703
63.94924545
60.59627151
57.85148621
54.19549561
52.16392899
50.20121765
48.68613434
45.31521606
43.40934753
41.16900635
41.25531769
40.75413513
41.24401093
41.76493835
42.26091385
42.63402939
44.34326553
46.08501434
47.62047195
48.49782944
48.08283615
48.3542366
49.68687439
51.60290909
52.56960297
53.98202896
53.89574051
55.63719559
57.30971909
57.73492432
59.39811325
60.05817795
60.83247375
60.94804764
61.60481262
60.70481873
60.63508606
59.91424179
58.27709961
55.52553558
53.07066345
50.26931
45.98052216
41.74617767
39.26205444
36.98026657
35.77150345
37.10621262
38.99245453
41.06539917
44.4513855
49.94591522
56.88453674
62.7414093
69.55735779
75.58860779
81.91203308
88.55421448
92.6228714
99.1675415
102.2471924
105.3922348
108.2277679
111.1167908
114.4216919
116.0673752
117.3022537
117.6367645
117.7629776
116.1352692
114.5754089
113.5500565
112.93647
110.4968643
108.1417007
103.5137177
99.87934875
96.70787811
94.09655762
92.18927765
89.78489685
87.6937027
87.24956512
85.48394775
83.55736542
79.95022583
77.74168396
77.13465118
76.9420166
80.17689514
81.55361938
84.65127563
85.67331696
86.97919464
87.7427597
88.95557404
92.55879974
97.14173889
104.2251816
105.8736725
102.6231689
94.79844666
82.44425201
66.01469421
49.37919235
29.13748169
6.387802124
-16.52744293
-38.45504761
-44.77493286
-50.25497437
-16.47702789
37.75343323
106.8311844
167.4458771
184.3697815
176.3890991
159.4359894
145.6614075
148.6391907
169.4466095
209.3681641
267.9198303
343.0975952
425.6484375
503.4491882
554.692688
554.4420166
496.5809021
386.499054
239.8210602
103.8980865
9.884735107
-52.96687317
-34.60690308
-28.77963257
2.871284485
23.64710236
42.17098236
64.80247498
73.70649719
89.19797516
89.74202728
97.62271881
95.60074615
96.85888672
96.84484863
96.38890839
95.39625549
94.47068787
92.39938354
90.42537689
88.02468109
85.580513
82.12110901
79.41466522
78.11403656
76.31100464
75.51970673
75.2342453
73.827034
72.57624817
71.39019775
71.0357666
68.56938934
67.20695496
65.55267334
66.14854431
66.37312317
66.86860657
69.2184906
72.70814514
75.45149231
78.07923126
80.80941772
82.9447937
84.45040894
86.03984833
88.28844452
89.78121948
91.28921509
93.95000458
96.83158875
102.0169983
109.1033936
114.7141113
119.4971924
125.1319504
131.2620544
136.4880829
141.2386475
147.951355
154.1076202
160.679657
166.5158997
172.9332733
180.6565247
188.095459
195.0447388
201.2915344
206.4048157
211.110672
215.0227051
219.1475372
224.5966339
230.6417999
235.7095032
242.781601
250.5207825
257.3999023
264.6375427
272.1116943
280.7460938
285.6359863
290.3224487
293.4557495
294.5543823
293.6245117
294.4388428
292.5022888
291.0378418
290.2093506
288.5905457
288.7276917
290.7877502
289.9030151
290.5344238
292.5564575
292.9672852
291.9300842
289.538269
288.4995728
284.6567993
279.906311
272.0411987
263.9669189
258.221344
250.6664886
243.4708557
236.7937927
230.4170227
223.2752838
215.3326416
206.0434113
193.7038574
182.7940979
171.1604309
160.391922
148.0540314
136.0814972
124.2887726
114.2906952
104.4675751
95.71459198
86.39894867
76.86683655
68.59719849
60.47910309
53.86204147
46.26095963
40.08813095
33.20265961
25.99953842
17.62522507
9.208042145
1.763498306
-5.660251617
-14.23365784
-23.17980576
-32.96716309
-43.26215363
-53.6545639
-64.24795532
-74.33398438
-83.33268738
-91.04853058
-97.65223694
-103.067543
-107.8796997
-111.7570801
-115.7409821
-121.6794739
-126.039978
-130.3902435
-131.8666687
-132.7547455
-133.4241333
-133.3244171
-132.9250336
-132.6821899
-133.0773926
-133.7397156
-133.4912262
-132.9365845
-133.3974457
-132.8305511
-133.6234589
-133.6671448
-133.4859924
-133.401535
-133.5717621
-134.1489868
-133.6014862
-133.0739441
-132.922348
-133.3240204
-134.0966034
-134.3677063
-134.547226
-133.6687927
-132.2592468
-129.9723358
-128.9529114
-126.7366409
-123.8203354
-119.4487991
-114.2814789
-109.8823471
-104.2914886
-100.1701584
-94.92071533
-90.23412323
-88.20342255
-86.25776672
-86.00921631
-83.34606934
-80.07041931
-78.34971619
-77.33872223
-76.50723267
-76.81248474
-75.97315216
-75.68755341
-76.43757629
-76.25879669
-78.078125
-78.69084167
-80.05201721
-82.69373322
-84.5087738
-87.47994995
-89.2671814
-91.539505
-91.99880219
-92.18097687
-93.96095276
-95.45240784
-96.82237244
-99.75382996
-100.8466339
-102.5260773
-102.7351532
-102.944458
-101.9642029
-100.5391312
-99.04953003
-96.55645752
-92.6769104
-90.6037674
-89.43021393
-87.40640259
-84.77728271
-84.25479126
-83.68821716
-84.13020325
-83.5121994
-83.70309448
-82.65006256
-82.41253662
-82.19975281
-82.53753662
-83.07241821
-84.64367676
-85.65493774
-85.71805573
-85.64001465
-86.45948029
-87.26785278
-88.16703033
-89.50339508
-90.31318665
-89.3521347
-89.75009155
-88.9171524
-86.63587952
-84.28781128
-81.35536194
-78.65340424
-76.14582062
-72.71828461
-70.19372559
-66.0719986
-60.26963043
-55.20452118
-49.18851852
-43.60051346
-37.23209381
-31.14284515
-27.97343445
-23.45283127
-20.53754425
-17.04337311
-16.85634232
-16.23560333
-16.72005463
-15.58046722
-14.60084534
-11.88926697
-11.59428024
-11.14797592
-11.95228577
-12.00693512
-11.94968414
-13.12533188
-13.93239212
-14.01800156
-13.59653854
-14.60429382
-15.05552292
-14.48598862
-13.88897324
-14.02642822
-14.72257996
-15.39177704
-16.78356934
-17.98729134
-19.32879066
-21.06695175
-23.67326927
-25.86983109
-27.46572495
-30.08772087
-32.80160904
-37.20071793
-41.69880676
-45.34518814
-49.05513
-52.65256882
-56.14849472
-60.49680328
-64.16740417
-68.86341858
-73.16621399
-77.11244202
-81.16549683
-83.82307434
-86.61685944
-89.65032959
-91.49947357
-93.19703674
-95.21694183
-97.74301147
-100.6643295
-95.72812653
-81.92712402
-57.52104187
-26.38625908
15.71763229
66.7661438
129.8914948
188.5600433
230.4723816
254.1610413
274.2524109
306.3999634
348.6521912
380.4190063
373.6129761
319.7921448
233.5131226
138.7255096
47.51325989
-40.36650085
-117.8816071
-163.2502289
-194.04599
-178.5481567
-169.1683655
-145.1619873
-127.9621277
-112.9960175
-97.32145691
-91.80027771
-81.40008545
-80.84677124
-76.25856018
-75.90557098
-73.83666229
-72.74731445
-70.57335663
-67.53250885
-65.67858887
-64.0874939
-61.99799347
-60.5904007
-60.64154816
-60.98225403
-58.59710693
-56.2383728
-53.05756378
-49.27680206
-47.2454071
-43.93238831
-43.10813904
-43.42998505
-44.34578705
-45.60910797
-47.22566986
-48.50532532
-51.15586853
-52.12052155
-54.62213135
-56.9780426
-58.87261963
-61.28489685
-64.29837036
-66.21392822
-67.4541626
-67.51695251
-66.5955658
-63.45062256
-58.93511963
-52.43006897
-46.98220825
-42.40794373
-36.89757538
-30.25520325
-22.75145721
-16.30020905
-10.08876038
-3.830078125
3.528251648
11.72466278
19.68782043
27.25312805
33.34609604
39.66507721
48.16498184
55.75813675
62.31212234
70.11539459
77.10131836
83.90133667
91.52107239
99.08396149
105.5830383
112.2824936
121.1925354
129.8902435
137.8027496
145.0964661
153.8340149
163.5349579
172.1473846
181.0505066
189.9868927
198.3153992
205.7751465
214.0234833
221.4285126
228.3053589
234.5345459
240.9026642
248.1753387
255.1315002
260.184082
261.5946655
261.8915405
262.7001953
260.981781
261.0363159
260.829895
261.7801819
263.7697754
263.9986572
266.1455078
267.1191711
269.2559814
270.1798706
276.5360718
281.7000732
289.273407
295.2982788
299.8840332
303.7145996
305.6878662
305.2045593
302.7420654
295.4101563
288.2174988
278.4839172
269.5368042
261.6998901
255.4932861
249.7342834
243.2307587
236.8377991
230.0065155
222.696106
216.2094574
209.0131531
202.6713867
197.3618927
194.0376129
190.1742554
186.1102448
181.9908905
179.0045624
175.5029449
176.9146423
178.9116516
181.9803925
186.3563995
191.1875763
197.2932434
201.6855774
205.4235077
209.810257
213.5422211
215.350174
216.4793549
215.4675903
212.4198456
206.5567322
196.1781769
187.2193451
177.6697083
168.9464417
159.7045135
149.1322174
138.78862
127.9883041
118.340477
108.4673843
100.7031326
91.44397736
85.01874542
79.49375916
74.37819672
70.36701965
65.09039307
59.66146088
54.44384384
47.42365646
41.71611786
35.79756165
29.14196968
22.49482155
15.42521954
10.72253227
4.559394836
-1.529429674
-8.991535187
-15.79637909
-24.09998131
-31.18323135
-38.08407974
-44.15658188
-51.4042244
-56.10681915
-60.21798325
-64.4342041
-70.43814087
-76.05805969
-81.87496185
-87.53413391
-92.21589661
-96.3659668
-100.2633972
-102.8722534
-104.8236008
-107.8673859
-109.7159805
-111.3563156
-113.8623962
-116.8930359
-120.8294983
-126.0627975
-130.9980927
-137.2847595
-144.3876953
-151.6413574
-157.6538239
-164.3758087
-168.9671936
-173.1207123
-178.5884247
-183.5580139
-189.1439209
-195.6402893
-200.3807373
-203.9264374
-207.7398987
-210.386322
-213.2135925
-214.509491
-216.7960358
-218.5331879
-220.431076
-222.9734039
-225.8698578
-228.9763794
-230.3129272
-232.0664063
-234.363739
-236.0644379
-237.9624786
-240.1873322
-241.1538544
-243.0293579
-243.9620667
-244.3839111
-245.666748
-246.1501312
-246.244751
-245.6020966
-245.7977142
-246.1500549
-246.4411316
-245.2156982
-242.8358002
-240.081192
-238.6917419
-236.5350037
-232.4003448
-229.0867615
-225.5304565
-223.8560028
-221.5402222
-218.7429199
-216.0065613
-213.4417114
-211.002533
-209.1942749
-204.9448242
-200.7429199
-197.1452332
-193.159668
-189.8090973
-187.6496429
-185.0626373
-181.9599915
-178.5778351
-176.931076
-175.6545105
-175.5666504
-174.8516541
-175.1530304
-175.8247528
-178.598175
-182.302948
-184.8891907
-187.7313385
-190.4810638
-193.4899445
-198.3235779
-203.9140015
-211.344162
-217.2897339
-222.6914673
-226.9442596
-232.480423
-235.6073151
-237.9468994
-238.5809021
-238.383728
-238.9508209
-241.7061615
-244.7640076
-248.6243286
-252.1518555
-256.8414612
-260.4644165
-264.0155945
-266.3256226
-266.8992615
-266.9511108
-266.3773804
-267.2094116
-267.8358154
-269.6644897
-270.4179688
-272.4220276
-273.0967712
-274.6976624
-273.6090393
-271.2907104
-269.4387207
-267.4710083
-268.1303711
-265.9316711
-267.7890625
-269.2530518
-275.3240356
-280.2197571
-273.2566223
-259.3262329
-207.7950897
-136.7015533
-19.51834106
106.487442
215.9299927
280.0248413
288.492157
246.358429
165.0041656
58.91485596
-55.34744263
-166.3153687
-273.0695801
-353.7362976
-418.2910156
-447.8336792
-456.1533813
-419.7130737
-394.0835876
-358.5848083
-330.9863586
-317.8582458
-298.9963379
-294.5982056
-280.576355
-274.3107605
-267.3066406
-271.6989136
-270.2779541
-274.9567871
-275.3569946
-278.672821
-281.8873901
-286.8385315
-288.8823853
-290.7792358
-290.8060608
-292.4300842
-294.4984741
-296.7737427
-297.1903687
-297.9787598
-299.2111511
-300.2688599
-300.7882996
-300.0845337
-299.2442017
-299.0078735
-298.335144
-296.9568481
-296.7297058
-296.7133789
-297.0069885
-297.960968
-297.5323181
-297.3581848
-298.1971436
-297.9658813
-297.4164429
-296.2028809
-295.8201904
-294.1109619
-293.5027771
-293.0977478
-291.0715942
-288.6447144
-288.0833435
-284.9894409
-283.7883911
-281.1044006
-279.6368408
-277.6281738
-275.7159424
-272.9901733
-270.2056885
-267.2571411
-264.4577637
-260.3835144
-255.7541351
-251.7591248
-247.3345184
-242.907074
-236.8039093
-230.007019
-221.94487
-214.7215271
-206.4447174
-198.8438568
-190.3998718
-181.4353485
-174.1400757
-166.6957703
-159.3297729
-152.2548523
-143.2255859
-134.2946014
-126.7315369
-119.7112503
-114.9713593
-110.9803925
-106.7290192
-103.6671448
-100.5056229
-97.68627167
-95.18281555
-92.16036987
-90.6618576
-88.99108124
-88.17473602
-88.83644104
-89.05261993
-90.58145905
-92.79575348
-95.78903961
-98.54618835
-102.0887604
-102.8618469
-103.4618759
-103.8526611
-103.4006653
-103.3923035
-103.2848129
-103.326767
-103.6469727
-106.5121384
-109.161171
-112.5011978
-115.6984863
-120.8146667
-126.2823639
-131.32724
-135.0466766
-139.0700531
-141.0339966
-144.3113708
-148.0794678
-153.4344177
-158.3693542
-165.465271
-172.8576508
-180.779541
-189.1169128
-196.93573
-205.6116638
-213.4515228
-218.6877136
-223.3403015
-227.9306335
-232.9764862
-238.1083374
-242.9196014
-246.466095
-249.0115051
-249.9160461
-251.8721313
-253.8469543
-256.3447266
-257.6908264
-258.6908264
-257.234314
-256.243988
-254.1920776
-252.8784637
-250.7519226
-248.9657288
-247.6475983
-246.213623
-245.0037079
-245.2194214
-245.6401367
-245.2648621
-245.0630798
-244.0289307
-243.087738
-243.3578491
-243.1940613
-243.0989227
-242.5753479
-242.3681946
-242.0791626
-242.2961884
-242.9206543
-242.7337189
-242.3767242
-241.9203949
-240.7159424
-239.9825439
-238.5121155
-235.6912689
-233.1685486
-230.7613525
-227.9375305
-225.3857117
-221.2822571
-216.5894775
-212.3805237
-207.9280396
-204.5933838
-201.7835083
-198.4076691
-195.2568359
-191.6325531
-187.7477722
-183.2998962
-179.1593628
-175.1573944
-170.2335205
-167.12854
-163.0979614
-159.1856995
-155.2303162
-150.3376617
-146.1813049
-142.8013763
-139.5749207
-136.199646
-132.3588867
-128.3088837
-124.9392548
-120.6182404
-116.9307556
-113.1692657
-109.5894547
-105.1667175
-99.07795715
-93.98994446
-86.76603699
-79.54376221
-72.07548523
-64.78204346
-57.25495148
-49.87306976
-41.42591858
-32.53640747
-23.23365402
-14.19439316
-5.442687988
3.559886932
11.45241547
18.15892029
22.78132629
25.93507385
27.36121368
29.03863525
29.40280151
29.384552
28.20772552
28.3208313
27.77659607
25.62325287
22.94187927
19.98616791
16.80911636
12.73963547
10.08446121
5.602210999
2.525569916
0.427940369
-0.162755966
-0.321744919
-0.743877411
-0.923156738
-0.3422966
-0.084350586
2.012374878
4.833612442
11.38920975
18.4454422
25.84498978
33.58920288
40.28909683
47.08220673
52.13659668
58.33177185
64.48749542
68.33525848
70.01734161
73.23560333
76.51315308
76.31219482
77.56159973
78.63996887
77.88108826
76.07115173
75.28440857
72.89533997
70.66807556
66.02122498
62.05306244
58.99285889
55.50271606
49.03234482
43.70510864
39.38027191
35.56402206
31.96980858
28.23671722
24.75712776
22.1480732
19.72729874
15.93372345
13.95535278
11.65130234
10.8290062
10.57363892
9.106380463
8.152004242
7.794822693
5.168647766
4.421531677
4.570518494
5.307319641
6.066879272
8.053665161
11.6962738
14.22293091
17.208992
20.55032349
22.86985779
26.54999542
29.58194351
33.61013031
39.38572693
44.42165375
51.94769287
58.51565552
64.40571594
69.95118713
73.92115784
78.93710327
85.73548889
92.70127106
101.4160004
107.7274857
120.7107544
133.9313049
164.5645599
203.6707001
257.1988525
316.6182861
381.8396301
447.885437
488.1105042
516.0964355
525.4087524
514.2424927
470.2946777
370.7156372
248.1394043
134.2080841
44.39875793
17.67705536
-12.38513184
-11.56666565
-4.305160522
10.97172546
24.05298615
37.27832031
52.65924835
66.41107941
79.4610672
84.77685547
92.40026855
97.24073792
102.8764496
107.4157104
114.3095169
121.6153412
126.543457
130.4060669
133.3688965
134.8162537
135.5246735
135.7088013
135.368866
136.2620544
136.5565643
136.7648163
136.9937286
137.358078
137.8659363
136.8008118
134.5868835
131.7399139
128.7528076
126.7908325
125.8897018
126.6518478
127.7443848
130.4226685
131.948761
133.9499207
136.6131134
138.8578949
142.9663544
145.8455353
148.2715912
150.6682892
153.4194489
156.7277222
161.6282196
167.157547
171.3832092
175.3555603
179.7601929
185.500061
191.9874725
198.9931335
205.060257
211.9214935
218.4201965
224.4443665
230.0643005
234.2913361
238.9172363
242.624939
246.0400391
251.0118408
255.7388153
261.4552612
265.849823
270.1502075
274.8404846
278.2807312
280.9364014
283.322876
284.6328735
286.0447388
288.2927551
290.8013306
294.5499268
299.9530029
305.055603
308.7368774
311.9363098
315.4904785
317.8748169
322.1811218
328.272583
331.744751
334.996582
339.1788635
343.7224121
347.550354
349.5016479
351.1214294
352.8650208
354.3520203
354.7539063
353.5142822
352.2509155
351.1796875
347.755188
343.4065552
339.5281982
335.9918518
332.6709595
328.5169678
325.2301941
320.489563
315.4949646
309.2653809
302.1771851
295.3278198
288.1968384
281.1805115
275.7324829
270.5186462
264.7868652
258.1324158
251.7311707
244.7638245
238.5884247
232.2583771
223.9762573
215.8712463
208.2250824
200.1821289
192.3131104
185.3223267
178.291687
169.8019104
162.2589417
155.3075714
147.7303467
140.7488708
133.2563019
126.0352707
117.8410339
109.1601257
100.2413483
93.58432007
88.4776001
83.72028351
79.02005005
73.44695282
67.22856903
60.48532867
53.46366119
46.05035782
39.06387329
33.51591492
27.87961769
23.98708344
20.89480972
16.41763687
14.13748169
12.45369339
11.14420319
8.721797943
6.092773438
3.970989227
3.03868866
1.235736847
1.328044891
2.068748474
1.528873444
0.560070038
-1.191360474
-2.350772858
-3.073314667
-3.504291534
-5.496501923
-6.555095673
-9.411804199
-12.47423172
-15.13861084
-18.68250275
-22.23233032
-25.48126221
-26.69579697
-29.21396255
-33.02545547
-35.92802048
-39.19791031
-44.04785156
-48.69940567
-53.14247131
-55.67020416
-60.57613754
-65.1746521
-69.34121704
-72.37297821
-75.68780518
-79.50203705
-82.33602905
-85.84195709
-88.30717468
-90.95014954
-93.35686493
-95.71840668
-96.48355103
-98.3127594
-99.3056488
-98.59721375
-98.79673004
-99.07842255
-98.81098175
-98.25774384
-95.83628082
-96.22080231
-99.45612335
-103.8879471
-108.2291336
-113.6734695
-120.0238571
-126.2065048
-133.3529205
-138.9891357
-144.2341919
-147.5947723
-149.6085815
-152.367569
-154.5912781
-156.5603333
-157.7134094
-159.63797
-161.0044861
-163.1917419
-163.6881409
-165.6684875
-166.4859924
-167.1208801
-166.8691406
-166.261734
-164.5429382
-163.1531372
-163.734436
-164.2849121
-165.6450195
-167.4174042
-169.4775391
-171.3602295
-172.5108337
-173.8139038
-174.5772705
-175.0376282
-174.5775146
-172.8373413
-171.2794189
-170.6499023
-169.8932648
-169.632019
-168.3857574
-166.7263947
-164.2747803
-162.269043
-161.763382
-159.0112
-154.4769592
-150.5266113
-146.077301
-141.5949097
-139.8245697
-138.4866638
-137.5930481
-136.6155853
-136.3195648
-136.8487549
-135.1694031
-131.9098053
-130.1869965
-127.3506165
-125.1823654
-123.8712921
-123.3212967
-123.231926
-123.6556168
-124.957077
-124.741745
-125.2934036
-126.3743896
-127.1987228
-129.0733795
-129.5718384
-130.4587555
-132.63237
-136.1391296
-140.2906799
-144.1571808
-149.1014404
-152.9776306
-157.0385742
-161.7367859
-165.8118439
-170.2560425
-174.1677399
-178.7731628
-184.0261078
-187.8210297
-190.8928528
-196.863739
-202.0867462
-205.2015839
-208.5178986
-211.2344971
-213.6180725
-216.7747498
-219.5580444
-221.2167053
-225.1356964
-229.3739929
-233.9614258
-238.0655518
-238.5280457
-239.1418152
-237.5169067
-237.4234314
-238.2700806
-242.8778839
-243.8805847
-240.0429688
-238.1565399
-238.2306213
-236.0256195
-229.0905151
-207.8002167
-176.8817139
-144.7845764
-112.8542786
-58.77631378
15.02340698
106.9079132
188.097168
247.5705566
269.4321594
237.1137695
134.6976929
11.40104675
-115.2547455
-222.2679443
-274.6064453
-319.7261963
-313.5960083
-318.0903931
-299.7814941
-289.5253296
-276.6640015
-266.6482849
-262.9042358
-254.787262
-250.8571167
-246.3981781
-249.4563751
-247.1999359
-250.4060364
-251.7858887
-253.798996
-255.4112244
-256.7344666
-258.3818359
-259.5238037
-259.4788818
-257.3674011
-256.249054
-255.0852509
-254.6636505
-254.5285034
-253.9020844
-252.1127319
-249.2141266
-246.7848511
-243.7850037
-240.7484894
-237.9873962
-234.4118958
-233.8448334
-234.0160522
-234.5436249
-234.5380249
-234.7550354
-233.8678894
-232.2350006
-231.9848022
-233.2315826
-234.9537048
-235.1796875
-235.0139465
-234.7368469
-232.6515503
-230.6244049
-228.3491364
-225.1701355
-221.8651123
-218.4218597
-216.1369171
-212.5593109
-206.618988
-200.2792358
-194.675705
-187.8903809
-181.5805969
-175.5310669
-169.1835175
-164.7574768
-160.5052185
-154.8858185
-148.7709656
-142.2615967
-135.7086792
-129.6995087
-123.1280975
-116.078598
-108.8418427
-102.7507629
-96.79788208
-90.17349243
-83.68623352
-78.8624649
-73.53123474
-68.27400208
-62.84017944
-58.20952988
-53.35006714
-48.63326263
-43.0812912
-38.39516449
-34.56710052
-31.675354
-28.1630249
-25.12924194
-24.12757874
-22.01716614
-19.91081238
-18.16510773
-16.81655884
-14.84716797
-13.52952576
-13.31724548
-13.40797424
-11.98883057
-10.28903198
-10.25362396
-10.25553131
-10.95359802
-12.42191315
-14.01794434
-15.80478668
-19.38312531
-22.28070831
-24.70174408
-25.1992569
-26.34020996
-28.0255661
-30.46849823
-35.83424377
-41.04721069
-46.43835068
-51.51743698
-57.28795624
-63.42403412
-68.71878052
-72.18817139
-75.28124237
-78.85476685
-81.43936157
-85.66747284
-90.58709717
-94.83579254
-99.98906708
-104.7499161
-110.7013321
-116.5056152
-122.0883026
-128.272522
-133.2646179
-135.5875702
-137.4022522
-140.3723297
-141.52565
-143.7313232
-144.8220978
-146.9457092
-148.8355255
-150.9942932
-152.2577209
-152.2054901
-152.7485046
-151.7633362
-153.0496368
-151.8885803
-151.6741638
-153.3183899
-154.2794342
-152.8083191
-151.698822
-151.2493286
-149.7515869
-147.2386475
-144.8121643
-141.8725586
-138.1182556
-134.8610077
-131.8104248
-128.6170197
-126.4224548
-123.5980072
-121.190094
-116.9551392
-113.8702698
-111.6814804
-111.1662445
-111.0201645
-110.9464874
-108.7183228
-107.009285
-106.9076691
-107.3934097
-108.1853256
-108.5522766
-109.1213989
-109.7016678
-109.1203918
-107.3633575
-105.6001282
-105.0400925
-104.1315918
-103.9040375
-103.078064
-100.8762741
-99.77209473
-99.58036041
-98.5569458
-98.23761749
-98.04806519
-97.06787109
-95.64211273
-94.09602356
-93.18733215
-91.90866852
-90.73991394
-89.62852478
-89.08853912
-87.46102905
-85.94281006
-83.68618774
-82.31668091
-81.44213867
-80.57728577
-79.53742218
-80.62173462
-81.29452515
-81.07794189
-79.83070374
-79.84973907
-79.27378845
-78.21350098
-76.82437897
-74.94804382
-71.61787415
-69.12815857
-66.55002594
-64.00259399
-61.2503624
-58.99542999
-57.12950897
-56.0881958
-54.68559647
-52.48720551
-50.17287064
-46.93464661
-43.6983757
-41.85671616
-42.19739914
-41.54768372
-42.13599777
-41.71305084
-40.13902283
-38.46456528
-34.78562927
-30.15639114
-28.40472412
-26.48399734
-23.73386383
-21.59722137
-20.3431015
-20.17589951
-18.13909912
-15.45025635
-12.79736328
-8.560268402
-3.224554062
1.350605011
6.867019653
12.56265259
18.10128975
22.09332466
27.63845444
34.35251999
40.75671768
48.23110199
56.99102783
65.81016541
74.59411621
83.4958725
91.12207031
100.4099579
109.1156616
116.2756958
121.8697815
126.9897537
131.9427795
135.840744
139.5683289
143.0802307
144.6892853
145.8173981
147.3650513
147.4595032
146.4495087
144.1517181
140.3051147
136.1292572
133.0704956
129.7270355
125.8254013
120.5209808
116.6726685
113.0756607
109.7048187
107.0951309
106.3975983
104.6267242
101.13311
98.29384613
97.86604309
99.28472137
99.43875885
99.15341187
101.8322754
104.2537155
109.7975998
113.3439102
116.1014786
119.4975052
122.2796936
126.77771
131.0882111
136.1287994
141.8862
148.3710938
155.1750336
161.4820862
168.3827057
172.9234772
177.9660645
181.0503845
186.2020416
188.7542572
194.3639832
195.9329071
195.9614716
200.2330933
203.4634552
225.5933685
251.0627747
301.3387756
357.5023193
435.8665771
514.2233887
569.5151367
603.1027222
609.6564941
579.727478
521.2753906
449.989502
373.3841248
290.6790161
207.1676331
136.0656433
83.06884766
72.98051453
70.94004822
114.8543243
143.3562164
178.8088684
207.7580566
228.7658844
252.1473999
255.637619
268.0413513
263.191803
265.7758484
262.2861938
259.9273071
253.8895569
251.029541
246.3186951
241.5285034
238.359787
234.1649628
229.7503204
225.9325562
223.1979675
221.4428864
222.1629486
224.5685425
227.3341675
230.2773285
233.6699219
238.2914886
244.2175903
249.2003784
254.9186401
260.9379272
267.5310974
273.5702515
280.9483032
288.4109802
295.9505615
301.7554932
307.7858887
313.2242432
317.9154968
322.5966187
328.9858093
334.7018127
339.0230408
342.8545532
348.1480408
352.6451416
355.9901733
358.9281006
361.613678
362.838623
364.1296692
365.0491943
365.7606201
367.2272339
369.5073853
373.1055908
376.4380493
379.2487183
384.3239136
388.4177246
391.1387024
393.8219299
397.4011536
401.1000977
406.2791443
412.3087463
418.8603821
425.8369751
432.5320435
438.7206116
444.5637207
452.3500366
460.012085
468.4448242
475.8237915
484.5998535
493.8858948
503.4225464
512.567688
521.428894
529.928833
538.180542
547.9349365
556.5396118
565.1276245
572.3519897
579.6748047
586.3624268
591.4958496
597.1259766
600.6566162
603.1264038
602.6699829
601.9012451
599.2501221
595.0264893
588.3829346
582.5645752
574.8458252
569.0421143
562.3872681
554.0929565
546.288269
537.8543701
530.3065186
521.9708862
512.3291016
503.488678
497.0435791
490.7110596
484.0557251
476.7208862
470.0869751
462.8849792
456.3532715
449.7096863
444.7893677
440.2429199
436.2393799
432.4150391
427.2609863
419.9371338
413.1453247
405.7503052
399.453186
390.9170532
380.2400513
370.3728638
360.3312988
349.7603149
340.7089233
332.4840088
325.680542
319.0169983
312.1488037
304.871521
298.5314941
292.4584351
286.7778931
282.946167
279.3139343
275.8014526
271.8796692
270.368988
269.9604492
268.9170532
267.9186096
267.2798462
266.76828
265.4859314
263.9349365
262.9733582
262.7199707
261.5939941
258.9889832
257.1659241
254.7771149
253.5696106
252.683136
251.0647888
250.1730347
250.3244019
250.6656647
249.6062164
248.1364899
246.2742462
245.8732147
245.482193
245.0494843
243.994812
243.2513428
243.549118
242.9883118
240.7508545
240.2138214
239.4710846
239.1924591
238.3027954
236.5644989
232.5450439
228.0919647
223.572052
219.8836517
215.3123932
210.7561493
207.8622131
204.8880615
201.4015045
197.0474243
193.2319336
191.3916321
189.5838776
189.3260345
189.5076294
189.2616425
188.5406342
186.4361877
182.9126892
179.7299957
178.1761322
177.4374237
173.7723541
170.8748016
167.4559479
165.9172516
162.7328644
160.0436096
156.1509552
153.6427002
151.2631683
148.6663055
145.9002991
142.5498047
139.2437592
137.068985
133.3833313
129.0310974
125.2508392
122.7273865
119.5245667
118.0210266
116.4018402
113.3261871
110.0729828
107.5314941
105.0382156
102.994873
101.3970566
99.08705139
97.26559448
94.57062531
92.44433594
89.26540375
86.19392395
84.19025421
85.44973755
86.79327393
87.73512268
88.03295135
90.78568268
93.08599091
94.4682312
96.02529907
97.21316528
99.52709961
102.75914
106.2350769
108.9927444
112.0695648
116.7156601
121.361969
125.9436951
129.5956116
131.1090088
131.5827789
131.3940582
130.4957123
129.6443176
130.5536194
130.0509033
129.6767273
129.738739
128.6335602
