0,-1268932,-63.028538,-30.092545,0,-0.678422,0,0
1,-3772951,-187.404510,-100.193176,11956050,-4.008195,0,8
2,-3806227,-189.057358,-136.114563,40062481,-12.288151,0,8
3,-3839844,-190.727127,-177.646362,84622017,-28.180206,0,12
4,-3873522,-192.399933,-220.461334,145939382,-53.405388,0,12
5,-3906969,-194.061264,-228.118591,224304765,-87.447083,0,13
6,-3940490,-195.726273,-182.049927,-293547096,-125.353745,0,13
7,-3974009,-197.391174,-188.839844,-177171021,-160.524506,0,13
8,-4007900,-199.074554,-192.507019,-110476045,-185.620605,0,13
9,-4041739,-200.755356,-194.481201,-74312530,-195.550293,0,13
10,-4074353,-202.375320,-198.939087,-56390219,-189.068115,0,13
11,-4089830,-203.144058,-211.511230,-48445194,-170.891937,0,13
12,-3973052,-197.343643,-206.758301,-44631393,-148.582825,0,13
13,-3521893,-174.934326,-188.416565,-41440405,-129.566986,0,13
14,-2767117,-137.444199,-159.252350,-38069685,-117.964905,0,13
15,-1951932,-96.953514,-127.083282,-32198103,-112.988129,0,13
16,-1259697,-62.569832,-101.353577,-19870619,-109.347488,0,13
17,-759096,-37.704708,-61.860657,43688956,-99.814163,0,13
18,-437391,-21.725447,-31.707214,56380654,-79.140900,0,13
19,-246284,-12.233059,-12.341240,-73979034,-46.457642,0,13
20,-138673,-6.887963,-5.511383,97820247,-6.036148,0,13
21,-79648,-3.956159,-6.203202,62248832,34.739883,0,13
22,-46586,-2.313952,-5.238459,-80680421,68.109962,0,13
23,-27826,-1.382132,-4.862267,69109050,88.861145,0,13
24,-17296,-0.859102,-1.413218,-9780779,96.062195,0,13
25,-11542,-0.573297,0.283623,14736618,92.730087,0,13
26,-8506,-0.422498,1.613550,-31731981,84.204803,0,13
27,-6494,-0.322560,0.100747,-67383586,75.710587,0,13
28,-5195,-0.258038,-1.464236,-18364621,70.641663,0,13
29,-4332,-0.215173,-1.302815,-16828459,69.772156,0,13
30,-3856,-0.191530,-0.654288,4560730,71.707611,0,13
31,-3818,-0.189642,0.790770,46426888,74.062439,0,13
32,-3511,-0.174393,0.321256,-42933003,74.764267,0,13
33,-3124,-0.155171,-0.032224,-44034118,72.980423,0,13
34,-2825,-0.140319,-0.580429,29489815,69.203506,0,13
35,-2818,-0.139972,-0.517378,39716366,64.777634,0,13
36,-3085,-0.153234,-0.124523,14756877,61.057159,0,13
37,-2951,-0.146578,-0.033612,-41482965,58.777710,0,13
38,-2573,-0.127802,0.158032,-26074640,57.828751,0,13
39,-2225,-0.110517,-0.140316,32395150,57.483490,0,13
40,-2253,-0.111908,-0.177241,49968014,56.899460,0,13
41,-2640,-0.131130,-0.299720,-18928327,55.543449,0,13
42,-2526,-0.125468,-0.153278,-9134494,53.396988,0,13
43,-2173,-0.107934,-0.020209,41133078,50.834747,0,13
44,-1878,-0.093281,-0.042155,-12546728,48.359344,0,13
45,-1950,-0.096858,-0.055075,19385665,46.325142,0,13
46,-2332,-0.115832,-0.188448,19089946,44.804184,0,13
47,-2224,-0.110467,-0.128690,15394536,43.621101,0,13
48,-1881,-0.093430,-0.122179,14088543,42.490036,0,13
49,-1605,-0.079721,-0.060229,16258181,41.181641,0,13
50,-1683,-0.083596,-0.062327,22541730,39.613548,0,13
51,-2031,-0.100881,-0.092796,32593430,37.859634,0,13
52,-1935,-0.096112,-0.091232,44355492,36.077049,0,13
53,-1680,-0.083447,-0.116356,53828072,34.414246,0,13
54,-1428,-0.070930,-0.077899,-56339151,32.943207,0,13
55,-1458,-0.072420,-0.080452,30644320,31.640739,0,13
56,-1799,-0.089357,-0.064527,23903958,30.422333,0,13
57,-1749,-0.086874,-0.077739,-21982631,29.193993,0,13
58,-1501,-0.074555,-0.084119,-1139136,27.901356,0,13
59,-1251,-0.062138,-0.076619,19031191,26.545925,0,13
60,-1274,-0.063280,-0.078092,-5767072,25.172646,0,13
61,-1545,-0.076741,-0.062693,18989459,23.838398,0,13
62,-1511,-0.075052,-0.068548,-39213366,22.581512,0,13
63,-1322,-0.065664,-0.063139,-50733250,21.408039,0,13
64,-1128,-0.056028,-0.067511,-12982774,20.295364,0,13
65,-1141,-0.056674,-0.065392,19300427,19.210342,0,13
66,-1361,-0.067602,-0.062810,-11128889,18.126957,0,13
67,-1354,-0.067254,-0.062794,-6656168,17.037453,0,13
68,-1243,-0.061740,-0.058252,-18515542,15.951565,0,13
69,-1036,-0.051459,-0.059432,-48791425,14.887791,0,13
70,-1050,-0.052154,-0.056867,32651375,13.862610,0,13
71,-1310,-0.065068,-0.061630,39800519,12.882746,0,13
72,-1352,-0.067155,-0.061092,-21759410,11.944370,0,13
73,-1290,-0.064075,-0.060375,-27287442,11.036947,0,13
74,-1070,-0.053147,-0.059640,855329,10.149843,0,13
75,-1010,-0.050167,-0.057689,-51476987,9.277191,0,13
76,-1267,-0.062933,-0.060513,50946858,8.419579,0,13
77,-1383,-0.068694,-0.060894,-3382398,7.582243,0,13
78,-1305,-0.064820,-0.060601,-18783288,6.771368,0,13
79,-1151,-0.057171,-0.060527,49019801,5.990864,0,13
80,-1131,-0.056177,-0.062871,33539217,5.240735,0,13
81,-1329,-0.066012,-0.064202,-28366804,4.517879,0,13
82,-1363,-0.067701,-0.062517,6319461,3.818098,0,13
83,-1318,-0.065466,-0.063630,-37903842,3.138166,0,13
84,-1177,-0.058462,-0.061978,-44302061,2.477118,0,13
85,-1134,-0.056326,-0.061588,-42814457,1.836057,0,13
86,-1270,-0.063082,-0.061279,-40370519,1.217094,0,13
87,-1338,-0.066459,-0.062803,-39225915,0.621828,0,13
88,-1285,-0.063827,-0.062203,-41246577,0.050626,0,13
89,-1116,-0.055432,-0.059565,-47044218,-0.497501,0,13
90,-1066,-0.052949,-0.058265,-54829843,-1.024294,0,13
91,-1218,-0.060499,-0.059202,51437812,-1.531468,0,13
92,-1294,-0.064274,-0.059654,48068673,-2.020039,0,13
93,-1173,-0.058264,-0.057309,48637583,-2.490153,0,13
94,-955,-0.047435,-0.054384,51950923,-2.941388,0,13
95,-881,-0.043760,-0.051754,55963526,-3.373224,0,13
96,-1126,-0.055929,-0.052867,-53881233,-3.785527,0,13
97,-1227,-0.060946,-0.052504,-52063423,-4.178664,153,13
98,-1126,-0.055929,-0.052676,-51494378,-4.553507,0,13
99,-927,-0.046045,-0.052307,-51826474,-4.911077,0,13
100,-985,-0.048925,-0.055072,-52728934,-5.252348,0,13
101,-1227,-0.060946,-0.055763,-53923341,-5.577907,0,13
102,-1263,-0.062734,-0.055510,-55275799,-5.888017,0,13
103,-1147,-0.056972,-0.055840,56290801,-6.182678,0,13
104,-955,-0.047435,-0.055798,54759558,-6.461823,0,13
105,-967,-0.048031,-0.053989,53190581,-6.725372,0,13
106,-1295,-0.064323,-0.056343,51641177,-6.973481,0,13
107,-1411,-0.070085,-0.059998,50106844,-7.206584,0,13
108,-1307,-0.064919,-0.061773,48570710,-7.425330,0,13
109,-1082,-0.053744,-0.061571,47021091,-7.630401,0,13
110,-1059,-0.052601,-0.061751,45460229,-7.822434,0,13
111,-1257,-0.062436,-0.060204,43928320,-8.001801,0,13
112,-1327,-0.065913,-0.059206,42419977,-8.168591,0,13
113,-1215,-0.060350,-0.057852,40920195,-8.322704,0,13
114,-999,-0.049621,-0.056174,39414531,-8.464050,0,13
115,-989,-0.049124,-0.055568,37910511,-8.592701,0,13
116,-1173,-0.058264,-0.056265,36450264,-8.709063,0,13
117,-1287,-0.063926,-0.057035,35034125,-8.813860,0,13
118,-1241,-0.061641,-0.057544,33630994,-8.907991,0,13
119,-1044,-0.051856,-0.056776,32225783,-8.992283,0,13
120,-917,-0.045548,-0.053932,30822364,-9.067247,0,13
121,-1059,-0.052601,-0.054137,29454805,-9.133070,0,13
122,-1181,-0.058661,-0.053775,28110637,-9.189642,0,13
123,-1183,-0.058760,-0.053224,26767675,-9.236805,0,13
124,-1039,-0.051608,-0.052180,25422584,-9.274511,0,13
125,-906,-0.045002,-0.052304,24078801,-9.303055,0,13
126,-1019,-0.050614,-0.052992,22760787,-9.322987,0,13
127,-1143,-0.056773,-0.053307,21459665,-9.334997,0,13
128,-1215,-0.060350,-0.054072,20157813,-9.339746,0,13
129,-1087,-0.053992,-0.052943,18844720,-9.337675,0,13
130,-903,-0.044852,-0.052168,17519576,-9.328962,0,13
131,-959,-0.047634,-0.051931,16210543,-9.313564,0,13
132,-1116,-0.055432,-0.053224,14917069,-9.291433,0,13
133,-1187,-0.058959,-0.052458,13631230,-9.262585,0,13
134,-1035,-0.051409,-0.050395,12346053,-9.227211,0,13
135,-739,-0.036707,-0.046821,11060022,-9.185598,0,13
136,-717,-0.035614,-0.044468,9798194,-9.138098,0,13
137,-872,-0.043313,-0.042620,8560621,-9.084995,0,13
138,-1000,-0.049671,-0.041519,7335661,-9.026550,0,13
139,-922,-0.045796,-0.040520,6115139,-8.963009,0,13
140,-653,-0.032435,-0.039609,4899184,-8.894680,0,13
141,-620,-0.030796,-0.039351,3707892,-8.821951,0,13
142,-811,-0.040283,-0.039793,2541842,-8.745289,0,13
143,-994,-0.049373,-0.040683,1392846,-8.665176,0,13
144,-881,-0.043760,-0.038750,255654,-8.581940,0,13
145,-605,-0.030051,-0.037283,-873976,-8.495707,0,13
146,-557,-0.027666,-0.036887,-1987239,-8.406404,0,13
147,-736,-0.036558,-0.036803,-3077200,-8.313887,0,13
148,-954,-0.047386,-0.037343,-4146527,-8.218065,0,13
149,-881,-0.043760,-0.037701,-5205353,-8.119057,0,13
150,-579,-0.028759,-0.035832,-6266417,-8.017151,0,13
151,-535,-0.026574,-0.035562,-7323397,-7.912758,0,13
152,-786,-0.039041,-0.037916,-8364033,-7.806314,0,13
153,-1061,-0.052700,-0.040433,-9396629,-7.698193,0,13
154,-1049,-0.052104,-0.042660,-10437251,-7.588633,0,13
155,-801,-0.039786,-0.044470,-11499145,-7.477777,0,13
156,-738,-0.036657,-0.045966,-12559369,-7.365701,0,13
157,-1002,-0.049770,-0.048826,-13599542,-7.252455,0,13
158,-1341,-0.066608,-0.053499,-14620111,-7.138127,0,13
159,-1357,-0.067403,-0.056600,-15635103,-7.022819,0,13
160,-1024,-0.050863,-0.056190,-16650052,-6.906556,0,13
161,-870,-0.043213,-0.056219,-17649945,-6.789304,0,13
162,-1091,-0.054191,-0.057352,-18629002,-6.670976,0,13
163,-1455,-0.072271,-0.059843,-19591661,-6.551510,0,13
164,-1496,-0.074307,-0.061062,-20552501,-6.430896,0,13
165,-1049,-0.052104,-0.058612,-21518373,-6.309209,0,13
166,-677,-0.033627,-0.053735,-22469868,-6.186543,0,13
167,-885,-0.043958,-0.052679,-23391577,-6.063043,0,13
168,-1354,-0.067254,-0.053946,-24283149,-5.938882,0,13
169,-1374,-0.068247,-0.051606,-25158399,-5.814217,0,13
170,-844,-0.041922,-0.047369,-26026325,-5.689202,0,13
171,-434,-0.021557,-0.045016,-26876484,-5.564050,0,13
172,-636,-0.031590,-0.043324,-27702359,-5.438981,0,13
173,-1126,-0.055929,-0.041744,-28506583,-5.314192,0,13
174,-1195,-0.059356,-0.040542,-29299621,-5.189893,0,13
175,-669,-0.033230,-0.037730,-30091079,-5.066276,0,13
176,-246,-0.012219,-0.035003,-30875090,-4.943451,0,13
177,-435,-0.021607,-0.033463,-31643743,-4.821447,0,13
178,-948,-0.047088,-0.033653,-32395329,-4.700312,0,13
179,-1108,-0.055035,-0.034489,-33140418,-4.580137,0,13
180,-597,-0.029653,-0.032188,-33894506,-4.461029,0,13
181,-198,-0.009835,-0.030215,-34657693,-4.343106,0,13
182,-436,-0.021656,-0.031560,-35423613,-4.226487,0,13
183,-997,-0.049522,-0.035367,-36183278,-4.111310,0,13
184,-1200,-0.059605,-0.037428,-36939060,-3.997669,0,13
185,-660,-0.032783,-0.035715,-37706165,-3.885592,170,13
186,-122,-0.006060,-0.030793,-38486271,-3.774965,0,13
187,-351,-0.017434,-0.030354,-39265920,-3.665600,0,13
188,-1054,-0.052353,-0.035461,-40023556,-3.557324,0,13
189,-1376,-0.068347,-0.039652,-40759491,-3.450087,0,13
190,-767,-0.038097,-0.037797,-41495905,-3.343929,0,13
191,-119,-0.005911,-0.034925,-42236166,-3.239029,0,13
192,-290,-0.014404,-0.034191,-42962150,-3.135585,0,13
193,-1072,-0.053247,-0.037173,-43656537,-3.033752,0,13
194,-1455,-0.072271,-0.039143,-44328628,-2.933541,0,13
195,-832,-0.041326,-0.037930,-45006025,-2.834870,0,13
196,-123,-0.006109,-0.035758,-45695492,-2.737580,0,13
197,-290,-0.014404,-0.036669,-46379168,-2.641551,0,13
198,-1141,-0.056674,-0.040240,-47037864,-2.546796,0,13
199,-1584,-0.078678,-0.043269,-47675010,-2.453506,0,13
200,-916,-0.045498,-0.041457,-48315037,-2.361919,0,13
201,-123,-0.006109,-0.037990,-48965761,-2.272182,0,13
202,-295,-0.014653,-0.038590,-49609742,-2.184274,0,13
203,-1161,-0.057667,-0.041631,-50227642,-2.098026,0,13
204,-1683,-0.083596,-0.045597,-50823497,-2.013267,0,13
205,-987,-0.049025,-0.043773,-51423663,-1.929864,0,13
206,-22,-0.001093,-0.037575,-52043041,-1.847760,0,13
207,-139,-0.006904,-0.035085,-52665319,-1.766938,0,13
208,-1077,-0.053495,-0.038657,-53266349,-1.687471,0,13
209,-1687,-0.083794,-0.041993,-53848311,-1.609455,0,13
210,-980,-0.048677,-0.039307,-54441042,-1.532951,0,13
211,88,0.004371,-0.034046,-55063001,-1.457998,0,13
212,18,0.000894,-0.031741,-55694636,-1.384604,0,13
213,-1010,-0.050167,-0.035694,-56303994,-1.312819,0,13
214,-1651,-0.082006,-0.037938,56137724,-1.242693,0,13
215,-858,-0.042617,-0.033152,55552919,-1.174247,0,13
216,338,0.016789,-0.025557,54947972,-1.107392,0,13
217,291,0.014454,-0.022551,54344567,-1.041961,0,13
218,-783,-0.038892,-0.024066,53774858,-0.977764,0,13
219,-1508,-0.074903,-0.026803,53243964,-0.914737,0,13
220,-767,-0.038097,-0.024681,52721799,-0.852995,0,13
221,320,0.015895,-0.022245,52182189,-0.792858,0,13
222,223,0.011077,-0.022767,51641454,-0.734685,0,13
223,-825,-0.040978,-0.026511,51133745,-0.678805,0,13
224,-1502,-0.074605,-0.029686,50665477,-0.625380,0,13
225,-837,-0.041574,-0.029529,50204205,-0.574368,0,13
226,223,0.011077,-0.024891,49713445,-0.525427,0,13
227,140,0.006954,-0.024013,49209977,-0.478055,0,13
228,-912,-0.045300,-0.029790,48737756,-0.431821,0,13
229,-1585,-0.078728,-0.036061,48304616,-0.386576,0,13
230,-937,-0.046541,-0.034897,47872064,-0.342395,0,13
231,118,0.005861,-0.029476,47400977,-0.299494,0,13
232,43,0.002136,-0.028755,46912559,-0.258097,0,13
233,-997,-0.049522,-0.034133,46450924,-0.218310,0,13
234,-1715,-0.085185,-0.041509,46022687,-0.180126,0,13
235,-1121,-0.055681,-0.041772,45586946,-0.143425,0,13
236,-105,-0.005215,-0.038520,45109127,-0.108085,0,13
237,-164,-0.008146,-0.038781,44613811,-0.074002,0,13
238,-1159,-0.057568,-0.044410,44151811,-0.041171,0,13
239,-1911,-0.094920,-0.051577,43731364,-0.009671,0,13
240,-1354,-0.067254,-0.052203,43312625,0.020422,0,13
241,-265,-0.013163,-0.046982,42861505,0.049166,0,13
242,-285,-0.014156,-0.046293,42400713,0.076765,0,13
243,-1344,-0.066757,-0.053832,41973385,0.103418,0,13
244,-2197,-0.109126,-0.062335,41586929,0.129202,0,13
245,-1592,-0.079076,-0.061756,41201467,0.154092,0,13
246,-277,-0.013759,-0.053730,40780929,0.178043,0,13
247,-134,-0.006656,-0.049106,40344450,0.201095,0,13
248,-1273,-0.063231,-0.053514,39937431,0.223384,0,13
249,-2218,-0.110169,-0.058367,39574483,0.245117,0,13
250,-1519,-0.075450,-0.054420,39215602,0.266505,0,13
251,-97,-0.004818,-0.047252,38822117,0.287642,0,13
252,79,0.003924,-0.044380,38410735,0.308461,0,13
253,-1073,-0.053296,-0.045655,38028254,0.328776,0,13
254,-2072,-0.102917,-0.048143,37690685,0.348300,0,13
255,-1448,-0.071923,-0.047209,37358594,0.366705,0,13
256,-2,-0.000099,-0.041153,36990954,0.383806,0,13
257,258,0.012815,-0.036910,36602368,0.399666,0,13
258,-893,-0.044356,-0.039008,36241087,0.414478,0,13
259,-2006,-0.099639,-0.044692,35924738,0.428352,0,13
260,-1395,-0.069290,-0.042473,35618401,0.441358,0,13
261,106,0.005265,-0.034463,35278888,0.453531,0,13
262,380,0.018875,-0.031305,34915342,0.464890,0,13
263,-831,-0.041276,-0.036322,34573500,0.475407,0,13
264,-1967,-0.097702,-0.041603,34275951,0.485061,0,13
265,-1341,-0.066608,-0.039270,33989065,0.493840,0,13
266,202,0.010033,-0.031243,33658474,0.501775,0,13
267,450,0.022352,-0.028390,33291512,0.508933,0,13
268,-792,-0.039339,-0.032688,32942528,0.515426,0,13
269,-1979,-0.098298,-0.039725,32643380,0.521275,0,13
270,-1419,-0.070482,-0.040505,32358885,0.526414,0,13
271,114,0.005662,-0.034920,32033572,0.530733,0,13
272,417,0.020713,-0.031084,31678637,0.534198,0,13
273,-832,-0.041326,-0.035835,31351479,0.536813,0,13
274,-2141,-0.106345,-0.045864,31078384,0.538557,0,13
275,-1666,-0.082751,-0.048344,30817604,0.539438,0,13
276,-61,-0.003030,-0.041974,30508590,0.539553,0,13
277,292,0.014504,-0.039561,30162148,0.539056,0,13
278,-935,-0.046442,-0.045094,29836911,0.538095,0,13
279,-2243,-0.111411,-0.052568,29560991,0.536773,0,13
280,-1742,-0.086526,-0.051460,29294142,0.535201,0,13
281,-71,-0.003527,-0.043771,28979330,0.533483,0,13
282,337,0.016739,-0.039525,28631701,0.531784,0,13
283,-899,-0.044654,-0.044063,28310799,0.530238,0,13
284,-2276,-0.113050,-0.052183,28042458,0.528828,0,13
285,-1825,-0.090649,-0.052788,27785500,0.527355,0,13
286,-96,-0.004768,-0.045088,27484983,0.525560,0,13
287,406,0.020166,-0.039616,27154919,0.523270,0,13
288,-831,-0.041276,-0.043404,26853609,0.520442,0,13
289,-2237,-0.111113,-0.050397,26603300,0.517145,0,13
290,-1781,-0.088463,-0.049265,26365515,0.513548,0,13
291,-25,-0.001242,-0.040863,26086630,0.509864,0,13
292,473,0.023494,-0.036821,25776908,0.506259,0,13
293,-806,-0.040034,-0.041343,25490544,0.502762,0,13
294,-2248,-0.111659,-0.049256,25252960,0.499197,0,13
295,-1817,-0.090251,-0.049827,25029255,0.495259,0,13
296,-16,-0.000795,-0.041513,24764612,0.490701,0,13
297,595,0.029554,-0.034599,24465001,0.485532,0,13
298,-632,-0.031392,-0.036205,24183106,0.480006,0,13
299,-2117,-0.105153,-0.043358,23946740,0.474439,0,13
300,-1688,-0.083844,-0.042129,23727942,0.469129,0,13
301,124,0.006159,-0.032809,23473430,0.464235,0,13
302,741,0.036806,-0.027101,23188046,0.459745,0,13
303,-494,-0.024537,-0.030265,22923767,0.455453,0,13
304,-2022,-0.100434,-0.037713,22715066,0.451004,0,13
305,-1702,-0.084539,-0.039501,22533110,0.446004,0,13
306,86,0.004272,-0.032044,22316225,0.440197,0,13
307,749,0.037203,-0.026598,22062572,0.433593,0,13
308,-513,-0.025481,-0.031647,21826923,0.426393,0,13
309,-2082,-0.103414,-0.041123,21644751,0.418812,0,13
310,-1844,-0.091592,-0.043692,21483885,0.410997,0,13
311,8,0.000397,-0.035215,21283592,0.403067,0,13
312,735,0.036508,-0.029905,21044758,0.395096,0,13
313,-521,-0.025878,-0.034074,20821362,0.387171,0,13
314,-2138,-0.106196,-0.043924,20647064,0.379296,0,13
315,-1920,-0.095367,-0.044897,20491014,0.371480,0,13
316,-37,-0.001838,-0.037103,20293543,0.363707,0,13
317,739,0.036707,-0.031567,20053444,0.356026,0,13
318,-512,-0.025431,-0.035429,19824850,0.348488,0,13
319,-2220,-0.110269,-0.045855,19646280,0.341049,0,13
320,-2084,-0.103513,-0.049146,19490125,0.333566,0,13
321,-157,-0.007798,-0.041884,19296039,0.325895,0,13
322,704,0.034968,-0.035810,19062420,0.318010,0,13
323,-495,-0.024587,-0.039117,18844158,0.310003,0,13
324,-2240,-0.111262,-0.048036,18679124,0.301993,0,13
325,-2115,-0.105053,-0.049296,18536811,0.294126,0,13
326,-144,-0.007153,-0.040579,18356348,0.286543,0,13
327,766,0.038048,-0.033890,18134853,0.279388,0,13
328,-456,-0.022650,-0.038095,17924117,0.272709,0,13
329,-2234,-0.110964,-0.046903,17761701,0.266403,0,13
330,-2138,-0.106196,-0.048946,17620713,0.260219,0,13
331,-204,-0.010133,-0.041785,17441465,0.253884,0,13
332,768,0.038147,-0.034980,17218486,0.247261,0,13
333,-418,-0.020762,-0.037746,17004797,0.240407,0,13
334,-2234,-0.110964,-0.047281,16842768,0.233441,0,13
335,-2160,-0.107288,-0.049892,16709352,0.226482,0,13
336,-120,-0.005960,-0.038791,16544333,0.219718,0,13
337,946,0.046988,-0.029705,16340027,0.213344,0,13
338,-314,-0.015597,-0.033284,16147958,0.207481,0,13
339,-2242,-0.111361,-0.044015,16007736,0.202057,0,13
340,-2270,-0.112752,-0.048469,15895234,0.196828,0,13
341,-203,-0.010083,-0.040713,15748073,0.191469,0,13
342,917,0.045548,-0.034371,15556297,0.185702,0,13
343,-266,-0.013212,-0.035753,15371496,0.179480,0,13
344,-2249,-0.111709,-0.045683,15236276,0.172862,0,13
345,-2342,-0.116328,-0.048936,15130141,0.166055,0,13
346,-280,-0.013908,-0.041782,14990883,0.159299,0,13
347,959,0.047634,-0.033201,14807529,0.152932,0,13
348,-161,-0.007997,-0.035192,14631733,0.147171,0,13
349,-2156,-0.107090,-0.043937,14505422,0.142031,0,13
350,-2278,-0.113149,-0.045706,14407028,0.137323,0,13
351,-217,-0.010779,-0.036230,14275562,0.132823,0,13
352,1091,0.054191,-0.026956,14100200,0.128419,0,13
353,38,0.001887,-0.028011,13930948,0.124154,0,13
354,-1922,-0.095467,-0.035236,13811556,0.120144,0,13
355,-2096,-0.104109,-0.037073,13722910,0.116441,0,13
356,-4,-0.000199,-0.025240,13604943,0.113081,0,13
357,1291,0.064125,-0.015835,13444564,0.110036,0,13
358,235,0.011673,-0.017074,13289598,0.107274,0,13
359,-1746,-0.086725,-0.026347,13183759,0.104623,0,13
360,-1959,-0.097305,-0.028800,13106154,0.101881,0,13
361,122,0.006060,-0.019124,12995850,0.098855,0,13
362,1503,0.074655,-0.007386,12838538,0.095548,0,13
363,501,0.024885,-0.006520,12681974,0.092130,0,13
364,-1549,-0.076940,-0.016171,12568559,0.088782,0,13
365,-1851,-0.091940,-0.020005,12482436,0.085599,0,13
366,226,0.011226,-0.010582,12364876,0.082601,0,13
367,1729,0.085880,0.001468,12200542,0.079798,0,13
368,748,0.037154,0.001368,12036489,0.077141,0,13
369,-1270,-0.063082,-0.005345,11916898,0.074579,0,13
370,-1583,-0.078628,-0.006545,11827678,0.072051,0,13
371,531,0.026375,0.005652,11709920,0.069621,0,13
372,2064,0.102520,0.016930,11546719,0.067428,0,13
373,1083,0.053793,0.017973,11382790,0.065689,0,13
374,-1048,-0.052055,0.008312,11262284,0.064399,0,13
375,-1444,-0.071724,0.004532,11173199,0.063316,0,13
376,665,0.033031,0.014100,11057299,0.062024,0,13
377,2292,0.113845,0.026011,10897440,0.060226,0,13
378,1366,0.067850,0.027526,10737501,0.057854,0,13
379,-737,-0.036607,0.020944,10622175,0.055093,0,13
380,-1156,-0.057419,0.019077,10541155,0.052271,0,13
381,978,0.048578,0.030658,10437019,0.049791,0,13
382,2644,0.131329,0.043240,10290410,0.047985,0,13
383,1720,0.085433,0.044722,10142252,0.047002,0,13
384,-496,-0.024637,0.035051,10036940,0.046613,0,13
385,-1029,-0.051111,0.030099,9964426,0.046301,0,13
386,1193,0.059257,0.041668,9866674,0.045540,0,13
387,2974,0.147720,0.055503,9722815,0.044066,0,13
388,2025,0.100583,0.056326,9573727,0.041967,0,13
389,-244,-0.012120,0.047912,9465688,0.039562,0,13
390,-839,-0.041674,0.044377,9391507,0.037233,0,13
391,1355,0.067304,0.053146,9297173,0.035226,0,13
392,3246,0.161231,0.066129,9161384,0.033634,0,13
393,2333,0.115881,0.068222,9022600,0.032410,0,13
394,-72,-0.003576,0.057778,8925257,0.031303,0,13
395,-820,-0.040730,0.050832,8861553,0.029921,0,13
396,1431,0.071079,0.060740,8775304,0.028016,0,13
397,3384,0.168085,0.071834,8641707,0.025558,0,13
398,2403,0.119358,0.069837,8499783,0.022706,0,13
399,-201,-0.009984,0.055528,8396547,0.019579,0,13
400,-1056,-0.052452,0.046772,8327578,0.016202,0,13
401,1254,0.062287,0.053751,8239966,0.012475,0,13
402,3340,0.165900,0.064491,8110229,0.008349,0,13
403,2333,0.115881,0.062024,7974967,0.003897,0,13
404,-700,-0.034769,0.041099,7881594,-0.000881,0,13
405,-2268,-0.112653,0.013986,7825113,-0.006335,0,13
406,-410,-0.020365,-0.000500,7751988,-0.013164,0,13
407,1538,0.076393,-0.010658,7636068,-0.022283,0,13
408,470,0.023345,-0.032079,7513764,-0.034563,0,13
409,-2343,-0.116378,-0.055933,7431959,-0.050366,0,13
410,-3402,-0.168979,-0.064655,7386933,-0.069006,0,13
411,-927,-0.046045,-0.051821,7327445,-0.088497,0,13
412,1665,0.082701,-0.031341,7226207,-0.105819,0,13
413,1028,0.051061,-0.021359,7117762,-0.117646,0,13
414,-2011,-0.099887,-0.034353,7049762,-0.121797,0,13
415,-3877,-0.192573,-0.058683,7020929,-0.118452,0,13
416,-1567,-0.077834,-0.058825,6978471,-0.110071,0,13
417,1742,0.086526,-0.037495,6893223,-0.100327,0,13
418,1473,0.073165,-0.030054,6800348,-0.092778,0,13
419,-1981,-0.098397,-0.046899,6748066,-0.089690,0,13
420,-4187,-0.207971,-0.057531,6737656,-0.091051,0,13
421,-1794,-0.089109,-0.048183,6720167,-0.094846,0,13
422,1651,0.082006,-0.040105,6668174,-0.098407,0,13
423,1418,0.070433,-0.044574,6619942,-0.099677,0,13
424,-1983,-0.098497,-0.054254,6630323,-0.097944,0,13
425,-4074,-0.202358,-0.056613,6700213,-0.094019,0,13
426,-1670,-0.082950,-0.046481,6765214,-0.089657,0,13
427,1615,0.080218,-0.036845,6776917,-0.086375,0,13
428,1303,0.064721,-0.038316,6762840,-0.084581,0,13
429,-1965,-0.097603,-0.049508,6769058,-0.083703,0,13
430,-3990,-0.198185,-0.060996,6793210,-0.082907,0,13
431,-1661,-0.082503,-0.054956,6787544,-0.081598,0,13
432,1666,0.082751,-0.035126,6724478,-0.079535,0,13
433,1465,0.072767,-0.026475,6639449,-0.076786,0,13
434,-1846,-0.091692,-0.041677,6585423,-0.073763,0,13
435,-3998,-0.198583,-0.060214,6574674,-0.070955,0,13
436,-1726,-0.085731,-0.054400,6562174,-0.068565,0,13
437,1630,0.080963,-0.035237,6503685,-0.066526,0,13
438,1495,0.074257,-0.029052,6423935,-0.064667,0,13
439,-1743,-0.086576,-0.041973,6378136,-0.062882,0,13
440,-3930,-0.195205,-0.056798,6379797,-0.061185,0,13
441,-1678,-0.083347,-0.049308,6374234,-0.059584,0,13
442,1723,0.085582,-0.030192,6313675,-0.057980,0,13
443,1586,0.078777,-0.025112,6231105,-0.056108,0,13
444,-1739,-0.086377,-0.040847,6184879,-0.053836,0,13
445,-4029,-0.200123,-0.057302,6184507,-0.051341,0,13
446,-1855,-0.092139,-0.053161,6173450,-0.049074,0,13
447,1621,0.080516,-0.036148,6110559,-0.047472,0,13
448,1599,0.079423,-0.029976,6028578,-0.046652,0,13
449,-1701,-0.084490,-0.043014,5980152,-0.046411,0,13
450,-4097,-0.203500,-0.059331,5973397,-0.046433,0,13
451,-1962,-0.097454,-0.054068,5956681,-0.046356,0,13
452,1565,0.077734,-0.037128,5888465,-0.045883,0,13
453,1612,0.080069,-0.031838,5796998,-0.044811,0,13
454,-1728,-0.085831,-0.046630,5735798,-0.043239,0,13
455,-4157,-0.206480,-0.061795,5718574,-0.041513,0,13
456,-2014,-0.100036,-0.055621,5693968,-0.040048,0,13
457,1578,0.078380,-0.037324,5616642,-0.039033,0,13
458,1699,0.084390,-0.030813,5511529,-0.038291,0,13
459,-1619,-0.080417,-0.043074,5429833,-0.037431,0,13
460,-4199,-0.208567,-0.060562,5384397,-0.036229,0,13
461,-2128,-0.105699,-0.056679,5321130,-0.034687,0,13
462,1597,0.079324,-0.037043,5189107,-0.032954,0,13
463,1855,0.092139,-0.028404,5014638,-0.031138,0,13
464,-1559,-0.077436,-0.043077,4865208,-0.029410,0,13
465,-4394,-0.218252,-0.063273,4772729,-0.028014,0,13
466,-2395,-0.118961,-0.060536,4691612,-0.027118,0,13
467,1632,0.081062,-0.038854,4576816,-0.026661,0,13
468,2114,0.105004,-0.028657,4456522,-0.026338,0,13
469,-1461,-0.072569,-0.043543,4381576,-0.025838,0,13
470,-4598,-0.228385,-0.063618,4364886,-0.025049,0,13
471,-2742,-0.136197,-0.062313,4355182,-0.024089,0,13
472,1357,0.067403,-0.047841,4301944,-0.023262,0,13
473,1864,0.092586,-0.045854,4219514,-0.022912,0,13
474,-1690,-0.083943,-0.060670,4156642,-0.023279,0,13
475,-4776,-0.237227,-0.076190,4142395,-0.024478,0,13
476,-2906,-0.144343,-0.071655,4134844,-0.026397,0,13
477,1008,0.050068,-0.060177,4079763,-0.028732,0,13
478,1284,0.063777,-0.062238,3989471,-0.030988,0,13
479,-2188,-0.108679,-0.079476,3922294,-0.032790,0,13
480,-4859,-0.241349,-0.093016,3911418,-0.034072,0,13
481,-2922,-0.145137,-0.089193,3909559,-0.035135,0,13
482,641,0.031839,-0.076831,3859166,-0.036336,0,13
483,520,0.025829,-0.078320,3775662,-0.037839,0,13
484,-3164,-0.157158,-0.104118,3718747,-0.039761,0,13
485,-6103,-0.303139,-0.142918,3716381,-0.042605,0,13
486,-4386,-0.217855,-0.159059,3720605,-0.047119,0,13
487,-606,-0.030100,-0.146010,3676340,-0.053836,0,13
488,61,0.003030,-0.127689,3600585,-0.062458,0,13
489,-2931,-0.145584,-0.129696,3551613,-0.071788,0,13
490,-5694,-0.282824,-0.143176,3558556,-0.079834,0,13
491,-4005,-0.198931,-0.135476,3573893,-0.084207,0,13
492,-60,-0.002980,-0.107635,3539898,-0.082922,0,13
493,766,0.038048,-0.093529,3472318,-0.075365,0,13
494,-2312,-0.114838,-0.105355,3431437,-0.062811,0,13
495,-5256,-0.261068,-0.119747,3446923,-0.048047,0,13
496,-3803,-0.188897,-0.113464,3468225,-0.034375,0,13
497,-76,-0.003775,-0.096793,3438938,-0.024458,0,13
498,602,0.029902,-0.095003,3377527,-0.019368,0,13
499,-2436,-0.120997,-0.109740,3343326,-0.018375,0,13
500,-5189,-0.257740,-0.123265,3363973,-0.019675,0,13
501,-3698,-0.183682,-0.117206,3392194,-0.021343,0,13
502,-212,-0.010530,-0.102567,3376610,-0.022092,0,13
503,324,0.016093,-0.098086,3334596,-0.021394,0,13
504,-2496,-0.123978,-0.107939,3321601,-0.019441,0,13
505,-5021,-0.249396,-0.123143,3357744,-0.016973,0,13
506,-3581,-0.177870,-0.121867,3391099,-0.014813,0,13
507,-204,-0.010133,-0.102978,3369215,-0.013329,0,13
508,457,0.022699,-0.087928,3305073,-0.012185,0,13
509,-2165,-0.107537,-0.094338,3249473,-0.010753,0,13
510,-4593,-0.228137,-0.109334,3231711,-0.008521,0,13
511,-3313,-0.164559,-0.107876,3219284,-0.005303,0,13
512,-45,-0.002235,-0.087786,3169681,-0.001201,0,13
513,619,0.030746,-0.076119,3091617,0.003390,0,13
514,-1906,-0.094672,-0.084432,3032264,0.007933,0,13
515,-4285,-0.212838,-0.099204,3022590,0.011849,0,13
516,-3080,-0.152985,-0.095282,3026383,0.014820,0,13
517,1,0.000050,-0.079085,2994250,0.016807,0,13
518,612,0.030398,-0.071243,2932786,0.018135,0,13
519,-1820,-0.090400,-0.080574,2888277,0.019233,0,13
520,-4063,-0.201811,-0.093402,2889697,0.020390,0,13
521,-2933,-0.145684,-0.091120,2899221,0.021577,0,13
522,-75,-0.003725,-0.077515,2870689,0.022578,0,13
523,481,0.023892,-0.070701,2810830,0.023250,0,13
524,-1733,-0.086079,-0.077420,2763302,0.023624,0,13
525,-3839,-0.190685,-0.090224,2756466,0.023762,0,13
526,-2791,-0.138630,-0.088943,2756782,0.023745,0,13
527,-64,-0.003179,-0.073359,2720144,0.023718,0,13
528,530,0.026325,-0.063148,2648751,0.023946,0,13
529,-1587,-0.078827,-0.071120,2586072,0.024584,0,13
530,-3690,-0.183284,-0.085922,2565586,0.025540,0,13
531,-2780,-0.138084,-0.086434,2556661,0.026524,0,13
532,-91,-0.004520,-0.070874,2512471,0.027255,0,13
533,610,0.030299,-0.060652,2434795,0.027606,0,13
534,-1412,-0.070135,-0.067557,2370850,0.027635,0,13
535,-3479,-0.172804,-0.079475,2353065,0.027503,0,13
536,-2582,-0.128249,-0.075842,2346456,0.027455,0,13
537,127,0.006308,-0.058964,2303040,0.027757,0,13
538,853,0.042369,-0.049735,2226125,0.028636,0,13
539,-1122,-0.055730,-0.054962,2159791,0.030198,0,13
540,-3200,-0.158946,-0.065542,2130483,0.032273,0,13
541,-2378,-0.118117,-0.063167,2104364,0.034473,0,13
542,184,0.009139,-0.051564,2039724,0.036308,0,13
543,909,0.045151,-0.044015,1948215,0.037509,0,13
544,-963,-0.047833,-0.048985,1877739,0.038036,0,13
545,-3032,-0.150601,-0.060067,1855294,0.037969,0,13
546,-2323,-0.115385,-0.060502,1852886,0.037406,0,13
547,201,0.009984,-0.047404,1833932,0.036542,0,13
548,983,0.048826,-0.038550,1799768,0.035664,0,13
549,-830,-0.041227,-0.044669,1777965,0.034999,0,13
550,-2842,-0.141164,-0.055058,1786750,0.034604,0,13
551,-2217,-0.110120,-0.054582,1803406,0.034382,0,13
552,200,0.009934,-0.042850,1793691,0.034175,0,13
553,986,0.048975,-0.035605,1754744,0.033866,0,13
554,-811,-0.040283,-0.042693,1717939,0.033399,0,13
555,-2870,-0.142554,-0.056784,1710164,0.032646,0,13
556,-2295,-0.113994,-0.057865,1710560,0.031466,0,13
557,170,0.008444,-0.044681,1684655,0.029829,0,13
558,988,0.049074,-0.037162,1632739,0.027878,0,13
559,-745,-0.037005,-0.042402,1590414,0.025897,0,13
560,-2753,-0.136743,-0.052932,1581427,0.024165,0,13
561,-2254,-0.111957,-0.053681,1583319,0.022860,0,13
562,185,0.009189,-0.042444,1563486,0.022006,0,13
563,1114,0.055333,-0.032414,1524316,0.021607,0,13
564,-515,-0.025580,-0.035163,1496077,0.021624,0,13
565,-2551,-0.126710,-0.045773,1497118,0.021878,0,13
566,-2103,-0.104457,-0.044963,1507217,0.022174,0,13
567,251,0.012467,-0.033932,1497204,0.022378,0,13
568,1153,0.057270,-0.026852,1467594,0.022483,0,13
569,-460,-0.022848,-0.032779,1444379,0.022491,0,13
570,-2495,-0.123928,-0.043921,1446407,0.022341,0,13
571,-2128,-0.105699,-0.045935,1456807,0.021841,0,13
572,160,0.007947,-0.035892,1447576,0.020820,0,13
573,1067,0.052998,-0.029129,1417897,0.019271,0,13
574,-521,-0.025878,-0.035562,1393779,0.017355,0,13
575,-2500,-0.124176,-0.046825,1394548,0.015280,0,13
576,-2108,-0.104705,-0.047590,1402858,0.013240,0,13
577,201,0.009984,-0.035444,1390763,0.011430,0,13
578,1125,0.055879,-0.026981,1358337,0.010024,0,13
579,-418,-0.020762,-0.030610,1331603,0.009172,0,13
580,-2389,-0.118663,-0.041495,1328241,0.008838,0,13
581,-2168,-0.107686,-0.046188,1332224,0.008777,0,13
582,25,0.001242,-0.038655,1318480,0.008633,0,13
583,1035,0.051409,-0.030535,1287535,0.008141,0,13
584,-399,-0.019819,-0.034028,1261943,0.007179,0,13
585,-2359,-0.117173,-0.045586,1257928,0.005699,0,13
586,-2150,-0.106792,-0.046455,1262108,0.003844,0,13
587,-49,-0.002434,-0.037342,1250938,0.001895,0,13
588,915,0.045449,-0.031893,1223659,0.000197,0,13
589,-433,-0.021507,-0.036824,1201365,-0.001007,0,13
590,-2366,-0.117520,-0.048132,1201004,-0.001728,0,13
591,-2246,-0.111560,-0.051894,1210048,-0.002276,0,13
592,-157,-0.007798,-0.042018,1204989,-0.003031,0,13
593,932,0.046293,-0.032078,1183950,-0.004137,0,13
594,-357,-0.017732,-0.036108,1166622,-0.005472,0,13
595,-2308,-0.114640,-0.047183,1168562,-0.006770,0,13
596,-2262,-0.112355,-0.050118,1177737,-0.007759,0,13
597,-224,-0.011126,-0.041129,1172277,-0.008279,0,13
598,828,0.041127,-0.035397,1150734,-0.008402,0,13
599,-388,-0.019272,-0.039285,1131966,-0.008338,0,13
600,-2247,-0.111610,-0.048254,1131739,-0.008395,0,13
601,-2199,-0.109226,-0.049598,1139102,-0.008810,0,13
602,-219,-0.010878,-0.040701,1133115,-0.009627,0,13
603,823,0.040879,-0.032983,1111673,-0.010576,0,13
604,-376,-0.018676,-0.036661,1092794,-0.011262,0,13
605,-2232,-0.110865,-0.047686,1092005,-0.011464,0,13
606,-2238,-0.111163,-0.051636,1099147,-0.011280,0,13
607,-339,-0.016838,-0.044474,1094028,-0.011041,0,13
608,733,0.036409,-0.036626,1073561,-0.011079,0,13
609,-402,-0.019968,-0.039542,1054491,-0.011580,0,13
610,-2180,-0.108282,-0.048766,1051590,-0.012514,0,13
611,-2276,-0.113050,-0.053526,1056305,-0.013720,0,13
612,-448,-0.022252,-0.046119,1049091,-0.014908,0,13
613,623,0.030945,-0.039469,1026549,-0.015817,0,13
614,-434,-0.021557,-0.042143,1005429,-0.016285,0,13
615,-2168,-0.107686,-0.052346,1001414,-0.016427,0,13
616,-2244,-0.111461,-0.054365,1006658,-0.016466,0,13
617,-425,-0.021110,-0.045160,1001493,-0.016607,0,13
618,636,0.031590,-0.037398,982378,-0.016851,0,13
619,-387,-0.019222,-0.039847,964913,-0.017019,0,13
620,-2077,-0.103166,-0.048688,963156,-0.016902,0,13
621,-2223,-0.110418,-0.052572,969645,-0.016446,0,13
622,-589,-0.029256,-0.048402,966270,-0.015844,0,13
623,407,0.020216,-0.043403,949378,-0.015394,0,13
624,-496,-0.024637,-0.045745,932846,-0.015369,0,13
625,-2042,-0.101427,-0.053527,930789,-0.015926,0,13
626,-2155,-0.107040,-0.055997,936284,-0.017037,0,13
627,-671,-0.033329,-0.050132,931631,-0.018442,0,13
628,239,0.011871,-0.044520,912652,-0.019710,0,13
629,-529,-0.026276,-0.046116,893539,-0.020426,0,13
630,-1806,-0.089705,-0.050614,889103,-0.020351,0,13
631,-1918,-0.095268,-0.052622,893078,-0.019574,0,13
632,-781,-0.038793,-0.049479,888425,-0.018440,0,13
633,-107,-0.005315,-0.047014,870741,-0.017390,0,13
634,-651,-0.032336,-0.047688,853488,-0.016708,0,13
635,-1500,-0.074506,-0.050232,849776,-0.016480,0,13
636,-1606,-0.079771,-0.051981,853356,-0.016630,0,13
637,-897,-0.044554,-0.049453,848136,-0.016957,0,13
638,-464,-0.023047,-0.046178,830246,-0.017191,0,13
639,-753,-0.037402,-0.046260,812606,-0.017101,0,13
640,-1114,-0.055333,-0.048185,808182,-0.016606,0,13
641,-1120,-0.055631,-0.047038,811709,-0.015752,0,13
642,-1022,-0.050763,-0.047130,807467,-0.014754,0,13
643,-1265,-0.062833,-0.054035,791355,-0.014004,0,13
644,-1107,-0.054985,-0.053283,775180,-0.013750,0,13
645,362,0.017981,-0.025764,770822,-0.013518,0,13
646,1688,0.083844,0.012933,773059,-0.012013,0,13
647,-1607,-0.079821,-0.031570,767407,-0.009052,0,13
648,-7943,-0.394533,-0.163757,750874,-0.007109,0,13
649,-77417,-3.845344,-1.875477,729744,-0.047305,0,13
650,-972238,-48.291588,-23.807318,745989,-0.650089,0,13
651,-4557107,-226.353973,-117.278732,3417301,-4.243610,32,12
652,-8388607,-416.666656,-248.991241,21913301,-15.430453,0,0
653,-8388607,-416.666656,-330.673767,-42931838,-39.473854,0,12
654,-8388607,-416.666656,-419.109741,48167539,-81.408951,0,12
655,-8388607,-416.666656,-485.133301,-31740113,-143.181793,0,12
656,-8388607,-416.666656,-462.581299,53186452,-220.310715,0,0
657,-8388607,-416.666656,-392.243896,16980666,-300.467102,0,4
658,-8388607,-416.666656,-401.637939,26184633,-368.506592,0,12
659,-8388607,-416.666656,-405.269287,-17382447,-409.936218,0,12
660,-8388607,-416.666656,-407.945190,14338519,-416.560547,0,12
661,-8388607,-416.666656,-419.590210,23293868,-390.168335,0,4
662,-8388607,-416.666656,-435.003662,23722954,-343.603027,0,4
663,-8388607,-416.666656,-425.858643,24004138,-294.042236,0,12
664,-8388607,-416.666656,-411.107544,24366276,-256.664124,0,12
665,-8388607,-416.666656,-401.935791,26273560,-239.103516,0,12
666,-8388607,-416.666656,-409.981567,39125866,-239.456726,0,4
667,-8388607,-416.666656,-427.312378,51953565,-248.293427,0,4
668,-8388607,-416.666656,-422.927490,7748443,-254.120087,0,12
669,-8388607,-416.666656,-417.597534,-10473856,-249.314606,0,12
670,-8388607,-416.666656,-411.796509,30711978,-232.838806,0,12
671,-8388607,-416.666656,-413.410278,13443528,-209.683105,0,12
672,-8388607,-416.666656,-417.440796,-1744067,-187.014801,0,12
673,-8388607,-416.666656,-417.596436,-42413771,-170.502625,0,12
674,-8388607,-416.666656,-418.500854,-54543415,-161.781067,0,12
675,-8388607,-416.666656,-416.981079,-21914800,-158.415222,0,12
676,-8388607,-416.666656,-416.568604,-50758124,-156.030396,0,12
677,-8388607,-416.666656,-415.052734,-4940841,-150.838348,0,12
678,-8388607,-416.666656,-416.020020,26762664,-141.501831,0,12
679,-8388607,-416.666656,-417.220215,7817458,-129.116425,0,12
680,-8388607,-416.666656,-417.605103,-15419716,-116.127197,0,12
681,-8388607,-416.666656,-417.241089,-41346537,-104.788818,0,12
682,-8388607,-416.666656,-415.880615,35189934,-96.161880,0,12
683,-8388607,-416.666656,-416.287720,-40667842,-89.909332,0,12
684,-8388607,-416.666656,-416.471436,50293387,-84.755432,0,12
685,-8388607,-416.666656,-417.031372,-15979119,-79.336533,0,12
686,-8388607,-416.666656,-416.914063,1286597,-72.826080,0,12
687,-8388607,-416.666656,-416.651367,3624632,-65.229813,0,12
688,-8388607,-416.666656,-416.629883,3848640,-57.168274,0,12
689,-8388607,-416.666656,-416.455688,1236765,-49.457260,0,12
690,-8388607,-416.666656,-416.677124,-11599537,-42.681122,0,12
691,-8388607,-416.666656,-416.648193,-34573453,-36.956688,0,12
692,-8388607,-416.666656,-416.815796,45817623,-31.986511,0,12
693,-8388607,-416.666656,-416.704834,4471591,-27.273071,0,12
694,-8388607,-416.666656,-416.622681,-36455362,-22.414398,0,12
695,-8388607,-416.666656,-416.608276,-39221410,-17.267708,0,12
696,-8388607,-416.666656,-416.609375,23687553,-11.966022,0,12
697,-8388607,-416.666656,-416.735352,24495102,-6.786777,0,12
698,-8388607,-416.666656,-416.680176,-51811094,-1.981445,0,12
699,-8388607,-416.666656,-416.697144,5873971,2.338295,0,12
700,-8388607,-416.666656,-416.634399,-42738499,6.229154,0,12
701,-8388607,-416.666656,-416.650024,20041855,9.846698,0,12
702,-8388607,-416.666656,-416.665405,-32042782,13.354334,0,12
703,-8388607,-416.666656,-416.665161,25619225,16.841505,0,12
704,-8388607,-416.666656,-416.689575,-42406053,20.302042,0,12
705,-8388607,-416.666656,-416.661743,916156,23.660847,0,12
706,-8388607,-416.666656,-416.671753,-13448327,26.826656,0,12
707,-8388607,-416.666656,-416.652588,-55472854,29.742222,0,12
708,-8388607,-416.666656,-416.664429,-45525106,32.403652,0,12
709,-8388607,-416.666656,-416.670288,21244336,34.853874,0,12
710,-8388607,-416.666656,-416.669189,-28715362,37.152298,0,12
711,-8388607,-416.666656,-416.674561,-54803485,39.345490,0,12
712,-8388607,-416.666656,-416.658325,2003247,41.449356,0,12
713,-8388607,-416.666656,-416.669067,12483755,43.449760,0,12
714,-8388607,-416.666656,-416.661011,-30145631,45.318527,0,12
715,-8388607,-416.666656,-416.670044,-35949391,47.030952,0,12
716,-8388607,-416.666656,-416.669189,-29174777,48.579636,0,12
717,-8388607,-416.666656,-416.664795,26736690,49.975143,0,12
718,-8388607,-416.666656,-416.669678,-27575025,51.239128,0,12
719,-8388607,-416.666656,-416.661987,32349843,52.392967,0,12
720,-8388607,-416.666656,-416.668701,-11657912,53.449089,0,12
721,-8388607,-416.666656,-416.665894,-17754247,54.409081,0,12
722,-8388607,-416.666656,-416.667236,33943023,55.266586,0,12
723,-8388607,-416.666656,-416.668213,15405662,56.014275,0,12
724,-8388607,-416.666656,-416.665527,24948109,56.648849,0,12
725,-8388607,-416.666656,-416.665771,48028204,57.173515,0,12
726,-8388607,-416.666656,-416.667114,-41215995,57.596413,0,12
727,-8388607,-416.666656,-416.666626,-18615769,57.927208,0,12
728,-8388607,-416.666656,-416.667236,-2971505,58.173676,0,12
729,-8388607,-416.666656,-416.666870,-8219971,58.339859,0,12
730,-8388607,-416.666656,-416.666016,-48054352,58.426483,0,12
731,-8388607,-416.666656,-416.666626,-22503729,58.432838,0,12
732,-8388607,-416.666656,-416.667480,-50475871,58.358856,0,12
733,-8388607,-416.666656,-416.665405,3234497,58.206436,0,12
734,-8388607,-416.666656,-416.668945,-55419389,57.979393,0,12
735,-8388607,-416.666656,-416.663940,-465729,57.682770,179,12
736,-8388607,-416.666656,-416.669312,55069973,57.321205,0,12
737,-8388607,-416.666656,-416.664551,-1850873,56.898506,0,12
738,-8388607,-416.666656,-416.667725,54823389,56.416870,0,12
739,-8388607,-416.666656,-416.666626,-966813,55.877892,0,12
740,-8388607,-416.666656,-416.666138,-56200319,55.282799,0,12
741,-8388607,-416.666656,-416.667847,2144058,54.633438,0,12
742,-8388607,-416.666656,-416.665039,-51992345,53.932320,0,12
743,-8388607,-416.666656,-416.667847,7432969,53.182411,0,12
744,-8388607,-416.666656,-416.666260,-45634303,52.386887,0,12
745,-8388607,-416.666656,-416.666748,14860264,51.548508,0,12
746,-8388607,-416.666656,-416.666870,-37150151,50.669662,0,12
747,-8388607,-416.666656,-416.666260,24382048,49.752228,0,12
748,-8388607,-416.666656,-416.666992,-26594654,48.797943,0,12
749,-8388607,-416.666656,-416.666504,35959855,47.808586,0,12
750,-8388607,-416.666656,-416.666992,-14005897,46.786095,0,12
751,-8388607,-416.666656,-416.666260,49551696,45.732628,0,12
752,-8388607,-416.666656,-416.667114,578535,44.650322,0,12
753,-8388607,-416.666656,-416.665649,38626600,43.541298,0,12
754,-8388607,-416.666656,-416.668091,51775938,42.407433,0,12
755,-8388607,-416.666656,-416.665405,4146691,41.250572,0,12
756,-8388607,-416.666656,-416.667725,-42905324,40.072304,0,12
757,-8388607,-416.666656,-416.665894,23537227,38.874306,0,12
758,-8388607,-416.666656,-416.666870,-22580272,37.658081,0,12
759,-8388607,-416.666656,-416.666992,44789398,36.425255,0,12
760,-8388607,-416.666656,-416.666260,-408336,35.177414,0,12
761,-8388607,-416.666656,-416.667358,-45158043,33.916191,0,12
762,-8388607,-416.666656,-416.665771,23566007,32.643158,0,12
763,-8388607,-416.666656,-416.667358,-20294493,31.359718,0,12
764,-8388607,-416.666656,-416.666260,49308500,30.067253,0,12
765,-8388607,-416.666656,-416.666992,6323693,28.766991,0,12
766,-8388607,-416.666656,-416.666748,-36236304,27.460209,0,12
767,-8388607,-416.666656,-416.665771,34653647,26.148136,0,12
768,-8388607,-416.666656,-416.668213,-7063858,24.831985,0,12
769,-8388607,-416.666656,-416.664673,-48366092,23.513031,0,12
770,-8388607,-416.666656,-416.669067,23772091,22.192337,0,12
771,-8388607,-416.666656,-416.664673,-16706616,20.871117,0,12
772,-8388607,-416.666656,-416.667480,56239345,19.550304,0,12
773,-8388607,-416.666656,-416.666870,16562460,18.230991,0,12
774,-8388607,-416.666656,-416.665771,-22718086,16.914059,0,12
775,-8388607,-416.666656,-416.668091,51416950,15.600452,0,12
776,-8388607,-416.666656,-416.665283,12920007,14.291077,0,12
777,-8388607,-416.666656,-416.667725,-25195520,12.986744,0,12
778,-8388607,-416.666656,-416.665527,50092696,11.688368,0,12
779,-8388607,-416.666656,-416.667847,12733549,10.396645,0,12
780,-8388607,-416.666656,-416.665649,-24252914,9.112415,0,12
781,-8388607,-416.666656,-416.667847,52152798,7.836292,0,12
782,-8388607,-416.666656,-416.665039,15903085,6.569056,0,12
783,-8388607,-416.666656,-416.668335,-19988835,5.311255,0,12
784,-8388607,-416.666656,-416.665527,-55522495,4.063621,0,12
785,-8388607,-416.666656,-416.667114,22325171,2.826674,0,12
786,-8388607,-416.666656,-416.667114,-12505930,1.601049,0,12
787,-8388607,-416.666656,-416.665405,-46983669,0.387259,0,12
788,-8388607,-416.666656,-416.668091,31905506,-0.814198,0,12
789,-8388607,-416.666656,-416.665405,-1888825,-2.002826,0,12
790,-8388607,-416.666656,-416.667969,-35346264,-3.178265,0,12
791,-8388607,-416.666656,-416.665527,-41979883,-4.340022,0,12
792,-8388607,-416.666656,-416.667603,-22899279,-5.487802,0,12
793,-8388607,-416.666656,-416.665649,-55260637,-6.621131,0,12
794,-8388607,-416.666656,-416.667603,25621903,-7.739738,0,12
795,-8388607,-416.666656,-416.666260,-6196984,-8.843218,0,12
796,-8388607,-416.666656,-416.666748,-37699959,-9.931318,0,12
797,-8388607,-416.666656,-416.666626,44135742,-11.003723,0,12
798,-8388607,-416.666656,-416.666382,13253887,-12.060213,0,12
799,-8388607,-416.666656,-416.667358,-17318963,-13.100559,0,12
800,-8388607,-416.666656,-416.666138,-47582842,-14.124544,0,12
801,-8388607,-416.666656,-416.667114,35477218,-15.132011,0,12
802,-8388607,-416.666656,-416.666016,5810880,-16.122763,0,12
803,-8388607,-416.666656,-416.667358,-23562109,-17.096691,0,12
804,-8388607,-416.666656,-416.666016,-52640099,-18.053608,0,12
805,-8388607,-416.666656,-416.667358,31599266,-18.993439,0,12
806,-8388607,-416.666656,-416.666260,3097986,-19.916046,0,12
807,-8388607,-416.666656,-416.666504,-25115371,-20.821388,0,12
808,-8388607,-416.666656,-416.667358,-53051406,-21.709396,0,12
809,-8388607,-416.666656,-416.665527,32315944,-22.580021,0,12
810,-8388607,-416.666656,-416.667969,4936876,-23.433270,0,12
811,-8388607,-416.666656,-416.665894,-22171092,-24.269070,0,12
812,-8388607,-416.666656,-416.666626,-49009830,-25.087448,0,12
813,-8388607,-416.666656,-416.667114,37446715,-25.888374,0,12
814,-8388607,-416.666656,-416.665894,11139846,-26.671898,0,12
815,-8388607,-416.666656,-416.668213,-14903339,-27.438095,0,12
816,-8388607,-416.666656,-416.664551,-40682766,-28.186974,0,12
817,-8388607,-416.666656,-416.668823,46816941,-28.918686,0,12
818,-8388607,-416.666656,-416.664917,21546015,-29.633171,0,12
819,-8388607,-416.666656,-416.667480,-3471867,-30.330593,0,12
820,-8388607,-416.666656,-416.667114,-28239474,-31.010933,0,12
821,-8388607,-416.666656,-416.665527,-52760421,-31.674347,0,12
822,-8388607,-416.666656,-416.667969,35988526,-32.320934,172,12
823,-8388607,-416.666656,-416.665161,11952409,-32.950806,0,12
824,-8388607,-416.666656,-416.668335,-11840354,-33.564171,0,12
825,-8388607,-416.666656,-416.665283,-35399395,-34.161079,0,12
826,-8388607,-416.666656,-416.667969,54301888,-34.741791,0,12
827,-8388607,-416.666656,-416.665161,31210450,-35.306343,0,12
828,-8388607,-416.666656,-416.668091,8348300,-35.855003,0,12
829,-8388607,-416.666656,-416.665649,-14284865,-36.387833,0,12
830,-8388607,-416.666656,-416.666992,-36692456,-36.905083,0,12
831,-8388607,-416.666656,-416.667358,54148912,-37.406860,0,12
832,-8388607,-416.666656,-416.665161,32186741,-37.893356,0,12
833,-8388607,-416.666656,-416.667969,10439994,-38.364777,0,12
834,-8388607,-416.666656,-416.666016,-11085758,-38.821304,0,12
835,-8388607,-416.666656,-416.666748,-32396966,-39.263199,0,12
836,-8388607,-416.666656,-416.667114,-53497353,-39.690620,0,12
837,-8388607,-416.666656,-416.666016,38641387,-40.103783,0,12
838,-8388607,-416.666656,-416.666870,17959394,-40.502861,0,12
839,-8388607,-416.666656,-416.667114,-2514121,-40.888077,0,12
840,-8388607,-416.666656,-416.665894,-22781117,-41.259644,0,12
841,-8388607,-416.666656,-416.667725,-42849936,-41.617805,0,12
842,-8388607,-416.666656,-416.665649,50310272,-41.962769,0,12
843,-8388607,-416.666656,-416.666992,30639892,-42.294792,0,12
844,-8388607,-416.666656,-416.667114,11168065,-42.614059,0,12
845,-8388607,-416.666656,-416.666016,-8109624,-42.920784,0,12
846,-8388607,-416.666656,-416.667358,-27194151,-43.215172,0,12
847,-8388607,-416.666656,-416.666016,-46087355,-43.497459,0,12
848,-8388607,-416.666656,-416.667114,48230699,-43.767906,0,12
849,-8388607,-416.666656,-416.666138,29711857,-44.026703,0,12
850,-8388607,-416.666656,-416.667603,11378149,-44.274162,0,12
851,-8388607,-416.666656,-416.665771,-6774236,-44.510468,0,12
852,-8388607,-416.666656,-416.667114,-24746625,-44.735878,0,12
853,-8388607,-416.666656,-416.666626,-42535894,-44.950562,0,12
854,-8388607,-416.666656,-416.666504,52873217,-45.154747,0,12
855,-8388607,-416.666656,-416.667114,35434924,-45.348648,0,12
856,-8388607,-416.666656,-416.666382,18169402,-45.532516,0,12
857,-8388607,-416.666656,-416.666382,1079317,-45.706589,0,12
858,-8388607,-416.666656,-416.667236,-15845298,-45.871101,0,12
859,-8388607,-416.666656,-416.666016,-32598991,-46.026276,0,12
860,-8388607,-416.666656,-416.667236,-49185382,-46.172363,0,12
861,-8388607,-416.666656,-416.666626,47420143,-46.309578,0,0
862,-8388607,-416.666656,-416.665894,31162706,-46.438148,0,0
863,-6550702,-325.376923,-373.082275,8543923,-45.575691,0,0
864,-1690008,-83.943611,-242.284668,-31759492,-40.205132,0,0
865,515820,25.621058,-128.669617,31575637,-25.226913,0,0
866,1440162,71.533623,-15.926270,-9985202,5.762009,0,0
867,1807501,89.779549,97.317970,-22887222,58.191849,0,0
868,2073957,103.014565,163.330170,14742101,133.783722,0,0
869,2216862,110.112732,115.289886,-15853501,225.510941,0,0
870,2220313,110.284149,100.173920,46382563,319.931763,0,0
871,2175615,108.063972,97.021027,-47549818,399.541870,0,0
872,2136581,106.125130,97.280518,46021641,448.667969,0,0
873,2127008,105.649635,98.070343,4238007,458.265259,0,0
874,2103480,104.480988,114.590698,-39658759,431.669678,0,0
875,2054464,102.046333,117.698944,44986959,382.367065,0,0
876,2003603,99.520042,107.151276,29165136,328.610413,0,0
877,1981250,98.409760,92.123840,20088914,286.305420,0,0
878,2015794,100.125580,84.784515,14203081,263.531311,0,0
879,2029111,100.787041,101.564209,25108515,258.514465,0,0
880,1975838,98.140938,105.295135,-16161144,261.900452,0,0
881,1916887,95.212814,103.153076,-30321258,262.734070,0,0
882,1893208,94.036667,95.387878,-54357824,253.642212,0,0
883,1900614,94.404526,90.591660,-44231389,233.881409,0,0
884,1882759,93.517654,92.039230,20781932,208.047363,0,0
885,1845285,91.656303,91.880051,55800484,182.884094,0,0
886,1832890,91.040634,93.665329,-44649344,163.599213,0,0
887,1862101,92.491562,92.958130,40907718,151.538666,0,0
888,1891708,93.962158,93.383484,46512548,144.471039,0,0
889,1882294,93.494560,92.032944,54219492,138.411346,0,0
890,1854710,92.124451,91.864761,-15442971,130.155334,0,0
891,1848866,91.834175,92.743866,842175,118.610809,0,0
892,1878504,93.306305,93.240616,-37487044,104.826080,0,0
893,1908346,94.788574,94.313705,-8065916,90.901932,0,0
894,1897444,94.247070,93.436890,-2467287,78.677048,0,0
895,1859786,92.376572,93.172455,19509713,68.917679,0,0
896,1839224,91.355247,92.548798,17053393,61.144821,0,0
897,1864605,92.615936,92.798920,15744333,54.192230,0,0
898,1894535,94.102577,93.069687,7972795,46.873505,0,0
899,1875275,93.145920,92.553635,27548350,38.566933,0,0
900,1830250,90.909508,92.111435,9901012,29.366425,0,0
901,1810140,89.910629,91.504517,-10302546,19.878136,0,0
902,1836868,91.238228,91.490509,-5422822,10.833820,0,0
903,1857311,92.253639,91.016510,22390220,2.700893,0,0
904,1835573,91.173904,90.746918,-49083506,-4.455552,0,0
905,1790533,88.936745,90.249496,4557699,-10.934027,0,0
906,1772922,88.061996,89.740494,54448987,-17.162825,0,0
907,1803208,89.566315,89.512268,-31711511,-23.474487,0,0
908,1823678,90.583069,89.289536,-577710,-29.955803,0,0
909,1795487,89.182808,88.935822,-50740653,-36.462723,0,0
910,1749194,86.883408,88.334412,53892554,-42.746147,170,0
911,1726291,85.745804,87.683746,-41881044,-48.598053,0,0
912,1750000,86.923447,87.097366,-24936492,-53.952713,0,0
913,1769176,87.875931,86.721863,-27539891,-58.888885,0,0
914,1741928,86.522507,86.264847,-37965932,-63.565758,0,0
915,1699374,84.408821,85.623337,-38167863,-68.129814,0,0
916,1681536,83.522804,85.153641,-23939533,-72.644554,0,0
917,1710694,84.971092,84.959198,-19522307,-77.070740,0,0
918,1735042,86.180473,84.873154,32508711,-81.300659,0,0
919,1717337,85.301056,84.733734,-51605387,-85.218216,0,0
920,1676694,83.282295,84.320984,5415584,-88.755096,0,0
921,1661901,82.547523,84.053650,41307285,-91.913040,0,0
922,1695478,84.215309,84.102768,17681557,-94.753021,0,0
923,1727806,85.821060,84.330414,9332795,-97.354462,0,0
924,1704914,84.683998,84.054443,23274239,-99.788147,0,0
925,1660569,82.481361,83.696945,-23032947,-102.086960,0,0
926,1643031,81.610237,83.363617,17026334,-104.253189,0,0
927,1678525,83.373245,83.364487,48118947,-106.267075,0,0
928,1710865,84.979591,83.314774,32484299,-108.115219,0,0
929,1689932,83.939835,83.188080,49363747,-109.791077,0,0
930,1645318,81.723831,82.898361,25636606,-111.303574,0,0
931,1631151,81.020149,82.728729,56441027,-112.665787,0,0
932,1667824,82.841721,82.750580,-7962249,-113.888977,0,0
933,1699288,84.404556,82.770767,9096287,-114.973434,0,0
934,1675329,83.214493,82.575150,46348165,-115.913849,0,0
935,1625857,80.757195,82.151474,-27161666,-116.709274,0,0
936,1607548,79.847778,81.735413,13591821,-117.371536,0,0
937,1642494,81.583565,81.581192,-37423215,-117.922989,0,0
938,1676036,83.249611,81.582672,45565515,-118.386353,0,0
939,1650613,81.986839,81.299683,-55740352,-118.777710,0,0
940,1600207,79.483147,80.862152,-48757727,-119.099319,0,0
941,1582012,78.579391,80.484497,-54466718,-119.341415,0,0
942,1617257,80.330032,80.381775,23359694,-119.485031,0,0
943,1652489,82.080025,80.354141,47516845,-119.513138,0,0
944,1632006,81.062622,80.214966,23379785,-119.413940,0,0
945,1580534,78.505981,79.805435,-11088042,-119.189163,0,0
946,1561421,77.556625,79.464920,-22976723,-118.851013,0,0
947,1601481,79.546425,79.534500,-29778585,-118.413879,0,0
948,1638511,81.385727,79.619080,-53271350,-117.887970,0,0
949,1618512,80.392365,79.443604,30884670,-117.277344,0,0
950,1571592,78.061821,79.211975,14503493,-116.579773,0,0
951,1556806,77.327393,79.112091,7624191,-115.789871,0,0
952,1597729,79.360062,79.214355,-9137132,-114.905502,0,0
953,1636804,81.300941,79.450455,-52467071,-113.927048,0,0
954,1612477,80.092606,79.316071,1628356,-112.860397,0,0
955,1560619,77.516792,78.918396,-50374323,-111.718948,0,0
956,1540822,76.533463,78.537201,23636120,-110.526825,0,0
957,1579534,78.456306,78.475159,-24440346,-109.308792,0,0
958,1623375,80.633911,78.623840,10854154,-108.083817,0,0
959,1602658,79.604889,78.584778,31919888,-106.857330,0,0
960,1544424,76.712372,78.130203,-45109784,-105.624374,0,0
961,1516050,75.303024,77.636917,10038138,-104.373657,0,0
962,1555243,77.249763,77.576492,-55989176,-103.090546,0,0
963,1606189,79.780273,77.679306,-35813369,-101.763641,0,0
964,1585868,78.770920,77.454529,-25679881,-100.391571,0,0
965,1524993,75.747223,77.035812,-673980,-98.981339,0,0
966,1495567,74.285622,76.744797,38584465,-97.543030,0,0
967,1533008,76.145332,76.670883,-50149047,-96.085709,0,0
968,1586399,78.797295,76.680054,54529305,-94.612640,0,0
969,1567841,77.875511,76.471405,33088923,-93.119064,0,0
970,1500758,74.543457,75.936584,25667560,-91.600327,0,0
971,1466572,72.845421,75.459457,37952163,-90.059906,0,0
972,1505430,74.775520,75.379028,48996253,-88.507263,0,0
973,1564238,77.696548,75.467911,47864035,-86.951096,0,0
974,1550816,77.029869,75.330978,52830770,-85.394135,0,0
975,1487250,73.872513,75.026596,21106370,-83.828583,0,0
976,1452269,72.134987,74.710602,13655493,-82.240524,0,0
977,1492644,74.140434,74.756058,-29004962,-80.613190,0,0
978,1556790,77.326599,75.024796,29896017,-78.933472,0,0
979,1546366,76.808838,75.003494,-26714536,-77.196991,0,0
980,1479922,73.508522,74.625061,48468143,-75.414673,0,0
981,1439036,71.477699,74.232529,32090167,-73.611053,0,0
982,1477380,73.382263,74.210892,13490332,-71.814133,0,0
983,1548361,76.907928,74.517273,-28677146,-70.043488,0,0
984,1542696,76.626541,74.545517,31441538,-68.304825,0,0
985,1470291,73.030151,74.101532,-3987227,-66.592651,0,0
986,1429096,70.983971,73.818726,-16781320,-64.893539,0,0
987,1469373,72.984550,73.919006,-31154447,-63.193069,0,0
988,1547864,76.883240,74.305130,46114048,-61.478149,0,0
989,1547725,76.876335,74.417969,1454074,-59.742813,0,0
990,1475588,73.293251,74.250854,-26443841,-57.984100,0,0
991,1423366,70.699356,73.816772,-36463312,-56.213196,0,0
992,1457063,72.373108,73.753769,-55360349,-54.447174,0,0
993,1539727,76.479073,74.036926,9396626,-52.704857,0,0
994,1543714,76.677109,74.066635,-55056925,-50.999428,0,0
995,1463242,72.680023,73.549957,6056823,-49.344414,176,0
996,1400737,69.575363,72.987442,-28326436,-47.749733,0,0
997,1429481,71.003090,72.817963,46089815,-46.219673,0,0
998,1519665,75.482582,73.054184,-14890679,-44.748108,0,0
999,1530111,76.001442,73.015457,27480250,-43.321686,0,0
1000,1447674,71.906746,72.548264,-25554274,-41.921341,0,0
1001,1373514,68.223183,71.898148,-54900950,-40.535019,0,0
1002,1403056,69.690552,71.806549,29383392,-39.154999,0,0
1003,1517019,75.351151,72.444336,-19639749,-37.771820,0,0
1004,1541319,76.558151,72.759888,34113085,-36.373291,0,0
1005,1448726,71.959000,72.334778,-8018741,-34.949799,0,0
1006,1365558,67.828003,71.928314,-26956942,-33.496162,0,0
1007,1389592,69.021782,71.856689,-46133192,-32.017593,0,0
1008,1499240,74.468063,71.912308,28369323,-30.536652,0,0
1009,1518014,75.400574,71.644745,-20703408,-29.091423,0,0
1010,1417485,70.407249,71.005051,-55135566,-27.721832,0,0
1011,1332364,66.179237,70.374130,44587663,-26.462555,0,0
1012,1351402,67.124870,69.992920,31873367,-25.333755,0,0
1013,1453435,72.192902,69.872208,-1006158,-24.328053,0,0
1014,1477813,73.403770,69.731644,-47832492,-23.407654,0,0
1015,1395668,69.323586,69.493179,31686155,-22.513988,0,0
1016,1314413,65.287605,68.883591,22173034,-21.598160,0,0
1017,1330519,66.087601,68.640121,15871869,-20.629124,0,0
1018,1435229,71.288597,69.105072,-14048353,-19.593063,0,0
1019,1466615,72.847557,69.364410,47895681,-18.491150,0,0
1020,1391448,69.113976,68.978531,5888703,-17.341820,0,0
1021,1310729,65.104614,68.412704,-12686343,-16.172165,0,0
1022,1323529,65.740402,68.331070,-28722643,-15.006008,0,0
1023,1434332,71.244049,69.023972,41945474,-13.855827,0,0
1024,1470599,73.045448,69.408142,-21681738,-12.725025,0,0
1025,1393596,69.220665,69.009521,41614718,-11.609037,0,0
1026,1308881,65.012825,68.449097,24693051,-10.504765,0,0
1027,1319663,65.548378,68.402771,17622013,-9.412947,0,0
1028,1432552,71.155632,68.923584,-11668023,-8.340097,0,0
1029,1475715,73.299561,69.319458,56093622,-7.293556,0,0
1030,1397757,69.427345,69.072220,34994480,-6.277147,0,0
1031,1309164,65.026886,68.592407,51309703,-5.293160,0,0
1032,1317471,65.439499,68.497177,-40953023,-4.343531,0,0
1033,1436001,71.326942,69.088181,-47315412,-3.421893,0,0
1034,1486279,73.824280,69.513626,37667205,-2.517542,0,0
1035,1409069,69.989220,69.403442,21466017,-1.617309,0,0
1036,1312997,65.217270,68.915466,27393472,-0.719976,0,0
1037,1315534,65.343285,68.765594,33226971,0.165378,0,0
1038,1437929,71.422707,69.314697,14075936,1.025583,0,0
1039,1490871,74.052368,69.635529,-27842191,1.848899,0,0
1040,1411485,70.109222,69.384323,51047234,2.629559,0,0
1041,1314499,65.291878,68.957809,40161556,3.365177,0,0
1042,1313758,65.255066,68.839279,36736963,4.057008,0,0
1043,1432116,71.133972,69.207352,14651087,4.708086,0,0
1044,1489914,74.004837,69.567703,-26409752,5.326997,0,0
1045,1412010,70.135300,69.350784,55352017,5.924771,0,0
1046,1308766,65.007111,68.706146,48202464,6.503152,0,0
1047,1305964,64.867935,68.493881,49318172,7.055717,0,0
1048,1430361,71.046806,69.111603,30752990,7.579554,0,0
1049,1495426,74.278618,69.599503,-11097500,8.077936,0,0
1050,1419735,70.519005,69.445862,-49817544,8.561657,0,0
1051,1311649,65.150314,68.908630,44462448,9.041742,0,0
1052,1300024,64.572891,68.596008,33631104,9.522736,0,0
1053,1421277,70.595596,68.996796,2244856,9.999952,0,0
1054,1492714,74.143913,69.406326,-54504831,10.461855,0,0
1055,1420482,70.556107,69.203156,5000076,10.895544,0,0
1056,1309155,65.026436,68.623535,-22775330,11.286457,0,0
1057,1291901,64.169418,68.347855,-33920429,11.625856,0,0
1058,1414194,70.243782,68.853622,53661643,11.920183,0,0
1059,1487030,73.861580,69.176254,6780517,12.185511,0,0
1060,1415200,70.293747,68.873703,-33053985,12.443110,0,0
1061,1303076,64.724487,68.252792,-43458409,12.703392,0,0
1062,1284225,63.788151,68.003174,-37555708,12.963655,0,0
1063,1407977,69.934975,68.501617,-51223158,13.212381,0,0
1064,1485471,73.784149,68.980652,15549147,13.441154,0,0
1065,1415782,70.322655,68.809174,-32885572,13.652409,0,0
1066,1301416,64.642036,68.186829,55188536,13.852694,0,0
1067,1278279,63.492809,67.850006,41294068,14.047531,0,0
1068,1398245,69.451584,68.224060,277887,14.238771,0,0
1069,1477917,73.408936,68.645355,39264225,14.423903,0,0
1070,1410679,70.069191,68.446487,-27489793,14.596819,0,0
1071,1295459,64.346146,67.803345,52249313,14.746502,0,0
1072,1268992,63.031517,67.414566,40087139,14.861370,0,0
1073,1388764,68.980659,67.862930,13041652,14.940863,0,0
1074,1470617,73.046341,68.298737,-35500889,14.995426,0,0
1075,1406197,69.846565,68.111740,38028009,15.044527,0,0
1076,1288829,64.016830,67.430054,28560848,15.100506,0,0
1077,1255580,62.365337,66.939941,38184261,15.162418,0,0
1078,1371240,68.110229,67.245575,33741025,15.218414,0,0
1079,1455689,72.304855,67.630524,5522093,15.253809,0,0
1080,1393667,69.224190,67.366592,-20011096,15.259542,0,0
1081,1275211,63.340420,66.627182,-20817635,15.230829,0,0
1082,1239007,61.542149,66.158768,-6034317,15.169046,0,0
1083,1355784,67.342522,66.553772,-6681493,15.085314,0,0
1084,1442585,71.653976,66.950592,-32376038,14.995571,0,0
1085,1380841,68.587120,66.671555,55848557,14.917267,167,0
1086,1260851,62.627151,65.923721,55540085,14.857155,0,0
1087,1222920,60.743095,65.450302,-40442830,14.809267,0,0
1088,1335828,66.351295,65.694107,-36432643,14.758307,0,0
1089,1425966,70.828499,66.089935,-56414800,14.691299,0,0
1090,1369472,68.022415,65.933746,37469331,14.606165,0,0
1091,1250672,62.121555,65.273422,41807442,14.507927,0,0
1092,1207294,59.966946,64.707794,-50321485,14.401499,0,0
1093,1316245,65.378601,64.969604,-42476656,14.294670,0,0
1094,1407434,69.908005,65.328247,52940007,14.193398,0,0
1095,1355528,67.329811,65.131073,34448129,14.102297,0,0
1096,1240355,61.609104,64.478470,39755573,14.017273,0,0
1097,1195148,59.363647,63.999329,-49855678,13.929214,0,0
1098,1303867,64.763779,64.390106,-39694240,13.833221,0,0
1099,1398975,69.487846,64.909851,55629414,13.733418,0,0
1100,1346702,66.891418,64.705307,35922328,13.642679,0,0
1101,1230101,61.099781,63.972504,39938479,13.570152,0,0
1102,1184327,58.826160,63.510345,-50323933,13.515589,0,0
1103,1291308,64.139969,63.837967,-40338376,13.469511,0,0
1104,1388988,68.991783,64.317520,55719420,13.418560,0,0
1105,1342859,66.700531,64.306747,37456373,13.357695,0,0
1106,1223648,60.779259,63.637604,43405352,13.285997,0,0
1107,1175350,58.380268,63.138397,-45140474,13.206253,0,0
1108,1280588,63.607498,63.451096,-33145468,13.124107,0,0
1109,1379535,68.522247,63.926392,-48719849,13.047783,0,0
1110,1333078,66.214706,63.744766,44802559,12.981033,0,0
1111,1214256,60.312752,63.128494,47360274,12.920200,0,0
1112,1163166,57.775085,62.585007,-44328334,12.851429,0,0
1113,1265779,62.871925,62.836227,-34486087,12.762028,0,0
1114,1366512,67.875389,63.288879,-52800815,12.646584,0,0
1115,1324456,65.786446,63.216934,36403465,12.515663,0,0
1116,1205525,59.879078,62.571335,33776885,12.382599,0,0
1117,1150063,57.124252,61.987427,50695677,12.255682,0,0
1118,1252253,62.200085,62.282104,-55549496,12.138899,0,0
1119,1354449,67.276215,62.746872,37841374,12.031025,0,0
1120,1302376,64.689720,62.348938,13674183,11.924175,0,0
1121,1162178,57.726009,61.073593,10617449,11.795000,0,0
1122,1098065,54.541481,60.075180,26838757,11.612583,0,0
1123,1194076,59.310402,59.805573,33333338,11.343290,0,0
1124,1300709,64.606918,59.871964,13776323,10.967619,0,0
1125,1267902,62.977379,59.783142,-12051955,10.498127,0,0
1126,1153018,57.271027,59.571106,-18634545,9.989346,0,0
1127,1094086,54.343842,59.183578,-5010505,9.514828,0,0
1128,1189432,59.079731,59.533188,393731,9.155903,0,0
1129,1296333,64.389557,60.067108,-19236991,8.973738,0,0
1130,1265229,62.844608,59.999756,-44635065,8.988914,0,0
1131,1150737,57.157730,59.321136,-2514568,9.157160,0,0
1132,1091562,54.218475,58.861450,47843772,9.389542,0,0
1133,1187017,58.959774,59.301880,53742808,9.589329,0,0
1134,1297092,64.427261,60.022430,32972908,9.691568,0,0
1135,1270557,63.109253,60.155182,4180248,9.689095,0,0
1136,1156377,57.437870,59.579514,-4931560,9.624706,0,0
1137,1093456,54.312550,59.083267,11626689,9.562449,0,0
1138,1182741,58.747383,59.331116,24574891,9.552347,0,0
1139,1296682,64.406898,60.012680,12200461,9.611984,0,0
1140,1272290,63.195332,60.086578,-4611311,9.720861,0,0
1141,1157240,57.480736,59.540771,6832231,9.835047,0,0
1142,1091927,54.236603,59.042511,45010712,9.907127,0,0
1143,1180687,58.645363,59.384933,-44153402,9.915567,0,0
1144,1295011,64.323898,59.944977,-56378984,9.868998,0,0
1145,1273131,63.237106,60.023544,31837088,9.802986,0,0
1146,1159562,57.596069,59.556290,22527710,9.754704,0,0
1147,1089665,54.124249,59.018539,30609518,9.740911,0,0
1148,1173433,58.285049,59.211594,30074998,9.753151,0,0
1149,1289456,64.047974,59.771088,5962550,9.768919,0,0
1150,1272235,63.192600,59.883453,-26211388,9.769327,0,0
1151,1160753,57.655228,59.392685,-43491291,9.743486,0,0
1152,1092069,54.243656,58.979446,-40773810,9.693027,0,0
1153,1174394,58.332783,59.293549,-42227828,9.631557,0,0
1154,1288730,64.011917,59.875671,49278841,9.578255,0,0
1155,1274626,63.311363,60.005096,20487846,9.551411,0,0
1156,1163138,57.773693,59.500671,5430287,9.556446,0,0
1157,1091214,54.201187,58.956894,10084100,9.580481,0,0
1158,1172296,58.228577,59.217697,11672721,9.601131,0,0
1159,1288654,64.008141,59.888260,-6265326,9.600424,0,0
1160,1274268,63.293579,59.960815,-32085174,9.572422,0,0
1161,1162723,57.753078,59.456482,-44734243,9.522827,0,0
1162,1088294,54.056152,58.900116,-38555585,9.460430,0,0
1163,1161007,57.667847,58.941925,-35400328,9.391636,0,0
1164,1276535,63.406181,59.425140,-51082611,9.317423,0,0
1165,1266804,62.922840,59.528244,37500949,9.237503,0,0
1166,1157889,57.512974,59.025055,25015998,9.148447,0,0
1167,1084249,53.855232,58.486099,30705698,9.043808,0,0
1168,1160413,57.638340,58.822220,33212011,8.927464,0,0
1169,1282475,63.701225,59.577271,-31669931,8.816076,0,0
1170,1277694,63.463753,59.853958,19405379,8.736841,176,0
1171,1171272,58.177711,59.526291,4509156,8.713572,0,0
1172,1091010,54.191055,58.996857,7828311,8.751165,0,0
1173,1160009,57.618275,59.154953,9039083,8.832932,0,0
1174,1277194,63.438915,59.629211,-8892993,8.923548,0,0
1175,1276968,63.427689,59.813507,-39660847,8.989628,0,0
1176,1168439,58.036995,59.257278,49612006,9.001671,0,0
1177,1087882,54.035686,58.757141,43661968,8.947969,0,0
1178,1153891,57.314388,58.896851,32851544,8.834072,0,0
1179,1274947,63.327305,59.567734,-4837364,8.689154,0,0
1180,1277233,63.440853,59.702011,-55925619,8.548796,0,0
1181,1171094,58.168873,59.296448,24786814,8.445974,0,0
1182,1087906,54.036880,58.739120,22032171,8.389490,0,0
1183,1151834,57.212215,58.919739,22626701,8.370230,0,0
1184,1274144,63.287422,59.541199,7710156,8.365488,0,0
1185,1278909,63.524101,59.739853,-12771094,8.356794,0,0
1186,1172211,58.224354,59.292847,-21649042,8.332294,0,0
1187,1088121,54.047558,58.756760,-15474002,8.288015,0,0
1188,1147344,56.989197,58.850632,-10992133,8.226614,0,0
1189,1271286,63.145462,59.445435,-19962668,8.156698,0,0
1190,1276367,63.397839,59.603333,-35903022,8.088467,0,0
1191,1170076,58.118305,59.154556,-44125210,8.028330,0,0
1192,1083544,53.820217,58.531906,-37700252,7.970520,0,0
1193,1140523,56.650394,58.626450,-30782741,7.906033,0,0
1194,1264727,62.819672,59.157639,-36714409,7.826757,0,0
1195,1274500,63.305103,59.410339,-50761160,7.736633,0,0
1196,1169371,58.083290,58.979584,55544604,7.644150,0,0
1197,1082471,53.766918,58.425888,-49390715,7.558126,0,0
1198,1135579,56.404823,58.483047,-41648173,7.482108,0,0
1199,1260904,62.629784,59.079712,-47720692,7.418591,0,0
1200,1273700,63.265366,59.307602,50909159,7.368308,0,0
1201,1169253,58.077427,58.881699,43284645,7.329570,0,0
1202,1080804,53.684120,58.299728,50017816,7.294158,0,0
1203,1127693,56.013119,58.287201,-56274605,7.251362,0,0
1204,1251766,62.175892,58.813126,50454518,7.193950,0,0
1205,1269317,63.047661,59.033798,35909011,7.122759,0,0
1206,1165531,57.892555,58.578568,28052937,7.043370,0,0
1207,1074337,53.362900,57.919403,35247257,6.958007,0,0
1208,1120117,55.636818,57.980194,43238725,6.868722,0,0
1209,1249619,62.069252,58.669785,39055308,6.780993,0,0
1210,1269403,63.051933,58.896149,26949429,6.703077,0,0
1211,1168307,58.030441,58.545990,21419949,6.645375,0,0
1212,1076992,53.494774,58.026321,30132387,6.612000,0,0
1213,1119781,55.620129,58.098236,39019337,6.601489,0,0
1214,1245853,61.882191,58.608826,35422400,6.604158,0,0
1215,1267933,62.978916,58.876328,23105641,6.612692,0,0
1216,1169882,58.108669,58.526718,16245263,6.619931,0,0
1217,1076406,53.465668,57.935684,23059281,6.616195,0,0
1218,1113804,55.323246,57.885544,30217500,6.591981,0,0
1219,1243431,61.761890,58.547165,24703866,6.548618,0,0
1220,1272103,63.186043,58.943558,9689646,6.498533,0,0
1221,1174033,58.314854,58.562012,309717,6.457300,0,0
1222,1077806,53.535206,57.979752,6518371,6.433953,0,0
1223,1112745,55.270645,58.020538,14769850,6.430145,0,0
1224,1239649,61.574036,58.568329,12007573,6.439324,0,0
1225,1269548,63.059135,58.801910,1888600,6.450760,0,0
1226,1172408,58.234138,58.416672,-2380047,6.454456,0,0
1227,1074388,53.365433,57.809631,6090667,6.439919,0,0
1228,1106296,54.950321,57.751617,14830957,6.399246,0,0
1229,1236235,61.404461,58.391068,13324191,6.335446,0,0
1230,1268583,63.011204,58.681335,3504279,6.262003,0,0
1231,1174845,58.355186,58.388977,-3538457,6.199096,0,0
1232,1076838,53.487125,57.842438,1539286,6.158681,0,0
1233,1106898,54.980221,57.850204,7953990,6.144819,0,0
1234,1235262,61.356133,58.421341,4427820,6.151648,0,0
1235,1272651,63.213264,58.840881,-7436564,6.173858,0,0
1236,1180892,58.655544,58.563614,-15409857,6.205216,0,0
1237,1081860,53.736572,58.020187,-10500694,6.237969,0,0
1238,1105834,54.927372,57.932785,-3733358,6.262670,0,0
1239,1231612,61.174835,58.492050,-6148035,6.275568,0,0
1240,1272719,63.216640,58.850113,-16591813,6.278116,0,0
1241,1179654,58.594051,58.460617,-23957782,6.273332,0,0
1242,1078013,53.545486,57.803787,-18986999,6.258898,0,0
1243,1102601,54.766788,57.784439,-11630110,6.231051,0,0
1244,1228019,60.996368,58.377716,-13445789,6.188874,0,0
1245,1270133,63.088192,58.663513,-24009970,6.136762,0,0
1246,1180066,58.614517,58.384995,-31712568,6.086177,0,0
1247,1078607,53.574993,57.818573,-26858861,6.046172,0,0
1248,1095287,54.403496,57.589798,-19887016,6.016498,0,0
1249,1221748,60.684883,58.155884,-22773783,5.993029,0,0
1250,1270259,63.094452,58.582718,-34440797,5.972761,0,0
1251,1185194,58.869225,58.378860,-43583551,5.956722,0,0
1252,1084025,53.844109,57.837418,-40803279,5.942850,0,0
1253,1101272,54.700775,57.894592,-35514755,5.935416,0,0
1254,1230377,61.113491,58.606125,-38353877,5.943329,0,0
1255,1282211,63.688114,59.107498,-48859245,5.979393,0,0
1256,1201901,59.699074,59.007095,55781932,6.054541,174,0
1257,1100442,54.659550,58.577850,-54125044,6.168458,0,0
1258,1110652,55.166683,58.535095,-47797988,6.306519,0,0
1259,1240983,61.640297,59.240128,-49764277,6.448970,0,0
1260,1293428,64.245270,59.728012,52452582,6.579153,0,0
1261,1214181,60.309025,59.547226,43546875,6.689172,0,0
1262,1111066,55.187248,59.042725,46956150,6.774100,0,0
1263,1119612,55.611732,59.063019,53827952,6.835874,0,0
1264,1249552,62.065922,59.704361,52262838,6.880087,0,0
1265,1302494,64.695580,60.190704,42297137,6.917127,0,0
1266,1222215,60.708080,59.968384,34647615,6.956317,0,0
1267,1117674,55.515472,59.436615,38625107,6.999518,0,0
1268,1121322,55.696671,59.278915,45307581,7.037467,0,0
1269,1250034,62.089863,59.835434,44561354,7.059364,0,0
1270,1312602,65.197647,60.462143,36210913,7.062601,0,0
1271,1233858,61.286392,60.339111,28517402,7.053494,0,0
1272,1126389,55.948349,59.810165,29348987,7.041104,0,0
1273,1129589,56.107296,59.761230,32443424,7.034511,0,0
1274,1258392,62.505009,60.439880,30093437,7.044104,0,0
1275,1319440,65.537300,60.822098,22281685,7.072343,0,0
1276,1243858,61.783100,60.725098,14273414,7.118560,0,0
1277,1139355,56.592377,60.331924,13960818,7.173324,0,0
1278,1141121,56.680096,60.276215,16644558,7.223325,0,0
1279,1275906,63.374939,61.113388,14939603,7.262284,0,0
1280,1345908,66.851974,61.897858,7421765,7.300586,0,0
1281,1273180,63.239540,61.988098,-898792,7.361897,0,0
1282,1169501,58.089748,61.695389,-1058539,7.465735,0,0
1283,1170299,58.129383,61.823273,2385246,7.621778,0,0
1284,1308548,64.996284,62.742874,728519,7.826817,0,0
1285,1379472,68.519119,63.487411,-7521944,8.064475,0,0
1286,1299967,64.570061,63.447418,-15635955,8.311298,0,0
1287,1188805,59.048588,62.954895,-14726594,8.537218,0,0
1288,1187429,58.980240,62.943268,-10388317,8.715952,0,0
1289,1327074,65.916481,63.670624,-10935301,8.832464,0,0
1290,1400806,69.578789,64.330658,-17116926,8.889715,0,0
1291,1318376,65.484451,64.293930,-23533562,8.905773,0,0
1292,1202022,59.705082,63.810730,-22710897,8.901274,0,0
1293,1193166,59.265202,63.568665,-19159618,8.886965,0,0
1294,1330281,66.075775,64.096359,-19850853,8.865030,0,0
1295,1407267,69.899712,64.617508,-25776738,8.831224,0,0
1296,1329660,66.044930,64.595520,-33166824,8.782551,0,0
1297,1211474,60.174568,64.092636,-34700293,8.712698,0,0
1298,1202523,59.729965,64.002808,-33765113,8.621490,0,0
1299,1355173,67.312172,65.045517,-35686393,8.526693,0,0
1300,1441861,71.618011,65.942337,-40293055,8.459396,0,0
1301,1358741,67.489403,65.899796,-46761871,8.451714,0,0
1302,1233832,61.285103,65.445663,-49517201,8.518116,0,0
1303,1222401,60.717319,65.436020,-49585382,8.649508,0,0
1304,1385054,68.796379,66.390305,-51225920,8.816935,0,0
1305,1481627,73.593216,67.334717,-55164194,8.985077,0,0
1306,1389396,69.012047,67.332855,51660792,9.128565,0,0
1307,1241811,61.681423,66.557541,50053968,9.227928,0,0
1308,1218899,60.543373,66.186478,51654305,9.271605,0,0
1309,1380788,68.584488,66.637100,51336484,9.252972,0,0
1310,1481442,73.584023,67.084213,48752090,9.169216,0,0
1311,1387666,68.926117,66.861786,45171820,9.020796,0,0
1312,1239212,61.552330,66.324799,46668854,8.814100,0,0
1313,1215345,60.366844,66.057281,50088772,8.560062,0,0
1314,1381991,68.644241,66.714951,51029912,8.285398,0,0
1315,1488711,73.945076,67.322571,49421003,8.027941,0,0
1316,1397222,69.400772,67.222046,46629551,7.829271,0,0
1317,1245192,61.849358,66.572693,46828873,7.706303,0,0
1318,1216765,60.437374,66.239807,47968708,7.645746,0,0
1319,1389928,69.038475,67.072617,47907364,7.617797,0,0
1320,1501317,74.571228,67.828690,48631935,7.590078,0,0
1321,1404954,69.784821,67.614380,47132677,7.543307,0,0
1322,1243019,61.741425,66.720840,46134577,7.467010,0,0
1323,1210940,60.148045,66.313324,46874821,7.362894,0,0
1324,1384120,68.749985,66.904007,46628259,7.236483,0,0
1325,1496896,74.351631,67.496292,45259757,7.093534,0,0
1326,1398092,69.443985,67.200775,41102854,6.937959,0,0
1327,1235310,61.358517,66.391312,42501350,6.769287,0,0
1328,1195250,59.368713,65.761139,49477214,6.578587,0,0
1329,1371549,68.125580,66.351608,52656146,6.366013,0,0
1330,1495964,74.305344,67.147980,50136108,6.144262,0,0
1331,1405088,69.791481,67.130920,46607841,5.941687,0,0
1332,1237456,61.465107,66.287933,50602276,5.777316,0,0
1333,1194308,59.321922,65.889725,-55376237,5.660672,0,0
1334,1368400,67.969170,66.540024,-53189636,5.588799,0,0
1335,1491682,74.092651,67.132935,-53837634,5.548413,0,0
1336,1398072,69.442993,66.781921,-55037025,5.518977,0,0
1337,1229471,61.068489,65.902039,-52319337,5.476551,0,0
1338,1179346,58.578754,65.267807,-49209080,5.393719,0,0
1339,1348720,66.991653,65.752380,-48941952,5.254263,0,0
1340,1478265,73.426224,66.433289,-48622359,5.062181,0,0
1341,1392114,69.147057,66.267319,-48903195,4.846112,0,0
1342,1221097,60.652546,65.302124,-43895832,4.636000,0,0
1343,1166848,57.957970,64.680649,-36259113,4.453059,0,0
1344,1334660,66.293282,65.283707,-32266295,4.308331,0,0
1345,1467601,72.896538,65.967270,-32701543,4.200832,0,0
1346,1381110,68.600479,65.636795,-33918347,4.120440,0,0
1347,1208807,60.042095,64.660095,-27099838,4.048845,0,0
1348,1146763,56.960339,63.890533,-17023192,3.961804,0,0
1349,1318030,65.467262,64.520844,-12827559,3.847367,0,0
1350,1465068,72.770721,65.434402,-14756525,3.711054,0,0
1351,1384997,68.793549,65.390808,-18470832,3.580970,0,0
1352,1205035,59.854740,64.407211,-14724797,3.482381,0,0
1353,1138183,56.534164,63.815247,-5579498,3.431414,0,0
1354,1304478,64.794128,64.305862,-1220426,3.426313,0,0
1355,1452569,72.149887,64.911285,-1920192,3.449615,0,0
1356,1379067,68.499001,64.777023,-2897900,3.478841,0,0
1357,1200831,59.645924,63.968781,5151982,3.491550,149,0
1358,1127712,56.014065,63.293335,15617715,3.467799,0,0
1359,1288812,64.015991,63.772568,20197820,3.403455,0,0
1360,1442389,71.644241,64.553864,20379971,3.316493,0,0
1361,1368914,67.994698,64.279892,20056996,3.236490,0,0
1362,1189571,59.086636,63.301895,27604441,3.183728,0,0
1363,1110385,55.153423,62.498871,39103748,3.154525,0,0
1364,1268031,62.983784,62.970856,45985441,3.132823,0,0
1365,1426901,70.874947,63.724106,43676295,3.097050,0,0
1366,1360541,67.578804,63.643204,36968542,3.042160,0,0
1367,1180158,58.619087,62.656799,40541617,2.972021,0,0
1368,1096071,54.442440,61.868759,52720483,2.897341,0,0
1369,1251128,62.144203,62.352692,-54524296,2.832722,0,0
1370,1412338,70.151588,63.089508,53827731,2.790480,0,0
1371,1349653,67.037994,62.951294,46430230,2.778029,0,0
1372,1167470,57.988865,61.943451,49301399,2.787403,0,0
1373,1077085,53.499393,61.077194,-52752449,2.797192,0,0
1374,1221932,60.694023,61.287170,-46869870,2.781885,0,0
1375,1383221,68.705338,61.896423,-49573254,2.727092,0,0
1376,1328552,65.989899,61.733368,-55447014,2.637350,0,0
1377,1150908,57.166222,60.779999,-51674998,2.527292,0,0
1378,1062040,52.752102,60.011963,-39582230,2.411863,0,0
1379,1202305,59.719139,60.397552,-32544885,2.307458,0,0
1380,1359257,67.515030,61.038345,-37505936,2.228281,0,0
1381,1310349,65.085739,60.890366,-47742239,2.187508,0,0
1382,1132931,56.273296,59.843430,-45932666,2.183757,0,0
1383,1038201,51.568005,58.825333,-31983056,2.196550,0,0
1384,1172076,58.217648,59.048920,-24337097,2.197447,0,0
1385,1331110,66.116951,59.788345,-31135472,2.166327,0,0
1386,1288928,64.021751,59.657837,-41955669,2.101644,0,0
1387,1117866,55.525009,58.744537,-40345858,2.017341,0,0
1388,1019796,50.653820,57.819565,-27247394,1.931631,0,0
1389,1140793,56.663803,57.908844,-19196592,1.861773,0,0
1390,1299641,64.553871,58.539978,-23566635,1.817571,0,0
1391,1264757,62.821163,58.421249,-32890303,1.802341,0,0
1392,1102827,54.778011,57.541779,-29552597,1.808170,0,0
1393,1003003,49.819702,56.646866,-12595872,1.814650,0,0
1394,1120475,55.654598,56.999832,-2042482,1.810662,0,0
1395,1283193,63.736889,57.809082,-9170181,1.799567,0,0
1396,1257905,62.480820,57.927597,-22507744,1.806783,0,0
1397,1103968,54.834686,57.182083,-21871447,1.859255,0,0
1398,1004939,49.915863,56.513367,-6185456,1.972786,0,0
1399,1117507,55.507175,56.947433,3581030,2.145312,0,0
1400,1278005,63.479198,57.774841,-3013527,2.360049,0,0
1401,1259386,62.554382,57.976364,-15837283,2.598939,0,0
1402,1107820,55.026016,57.236710,-14790214,2.841464,0,0
1403,1006404,49.988632,56.518188,2374924,3.068672,0,0
1404,1108923,55.080803,56.743729,13651756,3.265127,0,0
1405,1271751,63.168560,57.649124,8270562,3.431190,0,0
1406,1259655,62.567745,57.840378,-3115971,3.578132,0,0
1407,1107603,55.015240,57.098343,-1009321,3.719738,0,0
1408,1003342,49.836540,56.313507,15568695,3.859214,0,0
1409,1103763,54.824505,56.664520,26865988,3.997144,0,0
1410,1265564,62.861248,57.465042,23140956,4.130710,0,0
1411,1256469,62.409492,57.584793,12209015,4.261479,0,0
1412,1106179,54.944508,56.930084,11559268,4.391643,0,0
1413,996107,49.477173,56.073715,22591986,4.515722,0,0
1414,1089887,54.135277,56.207993,28836051,4.624050,0,0
1415,1254150,62.294308,56.984543,23114031,4.709604,0,0
1416,1251141,62.144848,57.177399,10982415,4.777225,0,0
1417,1104461,54.859173,56.545395,5178391,4.835702,0,0
1418,995767,49.460285,55.871948,10210939,4.893040,0,0
1419,1081736,53.730412,56.018280,13025916,4.955023,0,0
1420,1245996,61.889294,56.783829,6372172,5.027613,0,0
1421,1248771,62.027130,57.021057,-6898978,5.117879,0,0
1422,1104731,54.872585,56.399612,-14163161,5.228129,0,0
1423,993006,49.323143,55.597351,-9268166,5.346321,0,0
1424,1076148,53.452854,55.842407,-5813403,5.458010,0,0
1425,1242197,61.700596,56.689484,-11661469,5.553622,0,0
1426,1251832,62.179173,57.016098,-24248709,5.638291,0,0
1427,1108936,55.081451,56.424881,-31462923,5.723229,0,0
1428,995969,49.470318,55.716324,-26300152,5.818731,0,0
1429,1075974,53.444210,55.948441,-22534206,5.928558,0,0
1430,1242507,61.715996,56.810287,-30439689,6.051661,0,0
1431,1252922,62.233315,57.050629,-47061658,6.183763,0,0
1432,1114380,55.351856,56.563187,56199990,6.320006,0,0
1433,1001069,49.723637,55.885635,-51365088,6.449382,0,0
1434,1075054,53.398514,56.020004,-47184188,6.561792,0,0
1435,1237647,61.474594,56.760757,-54836784,6.651754,0,0
1436,1250455,62.110775,57.054031,42734623,6.726157,0,0
1437,1115628,55.413845,56.513687,33280595,6.793961,0,0
1438,995404,49.442253,55.608566,37443130,6.852750,0,0
1439,1054337,52.369488,55.411438,40499077,6.889565,0,0
1440,1218776,60.537262,56.123047,32159339,6.893044,0,0
1441,1239681,61.575626,56.414780,15529178,6.860376,0,0
1442,1110127,55.140610,55.806137,4254651,6.797596,0,0
1443,993319,49.338692,55.091003,6858034,6.716387,0,0
1444,1055257,52.415184,55.396240,8999886,6.640548,0,0
1445,1219740,60.585144,56.235519,1054660,6.595942,0,0
1446,1243201,61.750465,56.566864,-14066309,6.606630,0,0
1447,1110231,55.145775,55.936661,-25301993,6.680707,0,0
1448,982318,48.792267,54.941254,-23543834,6.798305,0,0
1449,1034212,51.369869,54.752075,-21620806,6.913562,0,0
1450,1198382,59.524281,55.368378,-26791770,6.976670,0,0
1451,1228714,61.030888,55.617264,-36214675,6.956713,0,0
1452,1104858,54.878895,55.173752,-42435135,6.854704,0,0
1453,986348,48.992439,54.644089,-39182288,6.702445,0,0
1454,1037248,51.520668,54.771057,-36539750,6.552097,0,0
1455,1201812,59.694653,55.624771,-37763826,6.461172,0,0
1456,1233411,61.264191,55.992538,-42536842,6.471099,0,0
1457,1108326,55.051151,55.495575,-44690307,6.590170,0,0
1458,988079,49.078419,54.708862,-38761157,6.780237,0,0
1459,1036133,51.465286,54.755142,-33777307,6.978924,0,0
1460,1196469,59.429260,55.472946,-34233855,7.125091,0,0
1461,1232963,61.241940,55.910965,-38898609,7.189956,0,0
1462,1108155,55.042656,55.443985,-42196284,7.180553,0,0
1463,987278,49.038631,54.654984,-38763207,7.128609,0,0
1464,1029668,51.144165,54.547562,-36043787,7.069835,0,0
1465,1194098,59.311493,55.410309,-36853298,7.036488,0,0
1466,1233906,61.288776,55.812424,-41759077,7.042300,0,0
1467,1112919,55.279289,55.466293,-45243309,7.085824,0,0
1468,990672,49.207214,54.728516,-39254492,7.145723,0,0
1469,1031420,51.231190,54.780701,-33473769,7.202357,0,0
1470,1190659,59.140675,55.441208,-34241771,7.240317,0,0
1471,1233843,61.285648,55.862427,-40092211,7.263200,0,0
1472,1115627,55.413795,55.461411,-44703891,7.281490,0,0
1473,993523,49.348824,54.766632,-41973747,7.302783,0,0
1474,1026676,50.995552,54.633377,-40067678,7.321661,0,0
1475,1187352,58.976414,55.426758,-40785182,7.333039,0,0
1476,1235334,61.359707,55.893768,-44075038,7.335236,0,0
1477,1118744,55.568619,55.476486,-47804165,7.333335,0,0
1478,994269,49.385880,54.709976,-45211420,7.328974,0,0
1479,1023016,50.813759,54.638611,-43102397,7.323597,0,0
1480,1180041,58.613274,55.301254,-43441322,7.315755,0,0
1481,1229883,61.088955,55.659302,-46335051,7.304007,0,0
1482,1116565,55.460388,55.240952,-49263826,7.287616,0,0
1483,995466,49.445335,54.567215,-46524834,7.263374,0,0
1484,1020880,50.707661,54.487198,-45158066,7.226809,0,0
1485,1176130,58.419014,55.206909,-45224459,7.180170,0,0
1486,1228366,61.013603,55.643204,-46749500,7.134377,0,0
1487,1118522,55.557590,55.288986,-49056653,7.105034,0,0
1488,990518,49.199566,54.384933,-47052305,7.093020,0,0
1489,1010441,50.189152,54.167358,-46337710,7.087741,0,0
1490,1166987,57.964874,54.865387,-46407028,7.072792,0,0
1491,1222687,60.731525,55.296448,-48196758,7.037061,0,0
1492,1116762,55.470173,54.910004,-51111170,6.978139,0,0
1493,988901,49.119247,54.193787,-48901794,6.901620,0,0
1494,1002888,49.813988,53.985657,-46749714,6.817648,0,0
1495,1162651,57.749504,54.714813,-47556114,6.741292,0,0
1496,1229127,61.051403,55.355148,-52310756,6.690820,0,0
1497,1131065,56.180611,55.192810,55014761,6.683210,107,0
1498,1006603,49.998516,54.708557,-55661079,6.723401,0,0
1499,1017050,50.517422,54.751480,-52817343,6.805893,0,0
1500,1168647,58.047329,55.429733,-52927959,6.918604,0,0
1501,1232350,61.211491,55.843369,-55403320,7.046552,0,0
1502,1134343,56.343430,55.492950,54336391,7.174249,0,0
1503,1006937,50.015106,54.717743,-56203505,7.278529,0,0
1504,1016260,50.478184,54.595184,-53778309,7.335127,0,0
1505,1170090,58.119003,55.412033,-54210552,7.332730,0,0
1506,1235565,61.371181,55.950668,53679191,7.280787,0,0
1507,1135466,56.399208,55.591125,47557300,7.205804,0,0
1508,1010582,50.196156,54.934692,50104117,7.138506,0,0
1509,1015643,50.447536,54.689407,53509385,7.097964,0,0
1510,1167681,57.999348,55.344543,53798743,7.088292,0,0
1511,1237487,61.466648,55.914642,51762954,7.099726,0,0
1512,1147853,57.014477,55.913818,49438183,7.123758,0,0
1513,1028059,51.064247,55.413651,51230710,7.148531,0,0
1514,1030199,51.170540,55.347488,51428176,7.171108,0,0
1515,1173620,58.294338,55.987137,51442261,7.197666,0,0
1516,1239911,61.587048,56.467834,51919527,7.241499,0,0
1517,1153230,57.281559,56.242432,50030307,7.309548,0,0
1518,1033323,51.325710,55.535309,50412226,7.388881,0,0
1519,1031981,51.259052,55.334808,50342923,7.451293,0,0
1520,1176151,58.420055,56.110947,50354173,7.471643,0,0
1521,1245566,61.867935,56.748718,49737970,7.443696,0,0
1522,1161265,57.680660,56.534698,47216100,7.384345,0,0
1523,1045608,51.935913,55.987106,48573782,7.323893,0,0
1524,1039510,51.633022,55.798096,49346335,7.289389,0,0
1525,1176388,58.431828,56.382233,49380128,7.293164,0,0
1526,1244128,61.796509,56.853745,48849670,7.326981,0,0
1527,1165474,57.889725,56.710724,46737564,7.372752,0,0
1528,1051021,52.204781,56.063568,47949757,7.401393,0,0
1529,1046821,51.996166,55.961990,48092787,7.392035,0,0
1530,1181077,58.664734,56.643112,48099077,7.342149,0,0
1531,1248370,62.007214,57.195099,48850663,7.272404,0,0
1532,1169600,58.094666,56.968750,47279966,7.212077,0,0
1533,1060096,52.655540,56.449646,47572834,7.184357,0,0
1534,1056063,52.455219,56.287476,47113853,7.191477,0,0
1535,1184842,58.851742,56.892853,47140353,7.219601,0,0
1536,1249243,62.050575,57.380127,46730937,7.246794,0,0
1537,1172575,58.242435,57.233307,43966171,7.258934,0,0
1538,1069771,53.136105,56.749451,44552606,7.248675,0,0
1539,1066965,52.996727,56.593582,44925643,7.217335,0,0
1540,1190121,59.113953,57.196640,44926115,7.175871,0,0
1541,1251975,62.186275,57.708206,44685180,7.139628,0,0
1542,1176918,58.458153,57.589218,42306404,7.123229,0,0
1543,1072690,53.281094,56.916534,42761562,7.123976,0,0
1544,1064546,52.876575,56.553970,43248360,7.124475,0,0
1545,1186714,58.944725,57.123734,43250805,7.104600,0,0
1546,1256227,62.397472,57.770645,42112935,7.054908,0,0
1547,1187447,58.981133,57.745453,38655876,6.982285,0,0
1548,1076832,53.486828,57.074768,38866479,6.899856,0,0
1549,1055804,52.442356,56.624374,39339058,6.820657,0,0
1550,1180939,58.657879,57.192322,39334360,6.755299,0,0
1551,1257259,62.448734,57.693726,39660316,6.704707,0,0
1552,1191588,59.186821,57.510681,38257061,6.663281,0,0
1553,1074093,53.350780,56.843124,38751608,6.615420,0,0
1554,1049621,52.135242,56.649094,36754414,6.549815,0,0
1555,1179948,58.608654,57.231827,35775765,6.463001,0,0
1556,1260702,62.619751,57.688248,37373325,6.364843,0,0
1557,1191245,59.169785,57.381836,36894727,6.273097,0,0
1558,1073470,53.319836,56.872635,37315208,6.204119,0,0
1559,1048373,52.073254,56.687622,36090150,6.159451,0,0
1560,1172145,58.221077,57.003571,35792015,6.125474,0,0
1561,1259596,62.564816,57.507034,35689270,6.087321,0,0
1562,1193632,59.288345,57.424881,33583211,6.038832,0,0
1563,1075949,53.442966,56.898224,34217653,5.980548,0,0
1564,1044901,51.900799,56.486237,33993244,5.911491,0,0
1565,1168954,58.062576,57.037842,33906827,5.842201,0,0
1566,1260401,62.604797,57.550964,33497648,5.782977,0,0
1567,1199135,59.561684,57.526917,32094206,5.745774,0,0
1568,1077807,53.535255,56.876343,32808900,5.727393,0,0
1569,1042079,51.760628,56.503708,31848854,5.718467,0,0
1570,1168147,58.022491,57.090591,31371634,5.707644,0,0
1571,1263203,62.743977,57.659241,31622878,5.689260,0,0
1572,1204831,59.844608,57.593170,31006007,5.667089,0,0
1573,1083331,53.809635,57.039673,31848185,5.646974,0,0
1574,1044611,51.886395,56.750778,31935249,5.634495,0,0
1575,1167348,57.982807,57.203308,31914374,5.629905,0,0
1576,1266329,62.899246,57.822052,31944688,5.633549,0,0
1577,1211080,60.154999,57.779190,30834653,5.646090,0,0
1578,1087005,53.992126,57.180115,31854589,5.663254,0,0
1579,1043059,51.809303,56.772232,32037713,5.673755,0,0
1580,1167399,57.985340,57.319458,31905581,5.671367,0,0
1581,1267319,62.948418,57.883102,31974423,5.654572,0,0
1582,1214841,60.341808,57.834641,30923967,5.631741,0,0
1583,1090319,54.156734,57.261948,31680935,5.609911,0,0
1584,1044222,51.867069,56.903214,31895773,5.592996,0,0
1585,1165050,57.868664,57.321960,31849189,5.578990,0,0
1586,1269886,63.075924,57.988464,32087285,5.567900,0,0
1587,1218029,60.500160,57.926270,31423061,5.561236,0,0
1588,1092058,54.243111,57.322876,31943877,5.558437,0,0
1589,1042518,51.782433,56.875641,31586396,5.552001,0,0
1590,1161008,57.667896,57.313263,31269698,5.537084,0,0
1591,1268001,62.982296,57.885620,31931821,5.510692,0,0
1592,1219700,60.583157,57.884415,31698147,5.478653,0,0
1593,1094896,54.384075,57.323059,32011698,5.446423,0,0
1594,1041561,51.734898,56.855988,31601622,5.415379,0,0
1595,1157847,57.510887,57.301163,31311583,5.386287,0,0
1596,1267804,62.972511,57.916977,32000081,5.360866,0,0
1597,1224651,60.829079,57.979324,31836694,5.346306,0,0
1598,1099037,54.589760,57.379837,32215500,5.343619,0,0
1599,1042583,51.785660,56.946854,32853500,5.348991,0,0
1600,1157571,57.497177,57.415558,33046123,5.356423,0,0
1601,1270354,63.099171,58.081924,33354081,5.363340,0,0
1602,1226459,60.918880,58.025055,32739144,5.370761,0,0
1603,1101713,54.722679,57.456390,32976702,5.380084,0,0
1604,1044598,51.885746,57.048721,34146344,5.388466,0,0
1605,1155755,57.406975,57.438461,34445022,5.391664,0,0
1606,1269790,63.071156,58.057892,34559556,5.386834,0,0
1607,1231744,61.181389,58.177628,33219943,5.380706,0,0
1608,1106337,54.952358,57.607101,33204263,5.378752,0,0
1609,1043533,51.832848,57.057541,34968318,5.379766,0,0
1610,1153003,57.270283,57.466873,35488227,5.381120,0,0
1611,1268667,63.015377,58.105377,35300316,5.380798,0,0
1612,1234776,61.331989,58.168198,33594716,5.380731,0,0
1613,1112496,55.258278,57.666611,33535131,5.381523,0,0
1614,1047234,52.016678,57.225067,34845598,5.382430,0,0
1615,1153640,57.301922,57.627319,35220386,5.383387,0,0
1616,1271304,63.146355,58.318954,35069136,5.387668,0,0
1617,1239920,61.587498,58.389603,33595460,5.403337,0,0
1618,1116187,55.441612,57.792587,33338034,5.432500,0,0
1619,1048194,52.064362,57.307495,34533794,5.467785,0,0
1620,1152110,57.225925,57.685669,34811513,5.497516,0,0
1621,1269735,63.068424,58.307663,34941145,5.511288,0,0
1622,1240649,61.623707,58.361664,33899137,5.507947,0,0
1623,1117698,55.516663,57.805115,33730386,5.491753,0,0
1624,1047064,52.008236,57.269882,34788759,5.466533,0,0
1625,1147748,57.009262,57.580994,34873621,5.436001,0,0
1626,1271024,63.132450,58.316483,35140397,5.406767,0,0
1627,1246130,61.895950,58.460632,34283237,5.388656,0,0
1628,1122173,55.738937,57.918823,34212760,5.387018,0,0
1629,1049175,52.113091,57.407791,34929689,5.398810,0,0
1630,1146679,56.956165,57.752151,34768562,5.418457,0,0
1631,1266145,62.890106,58.270142,35265980,5.436569,0,0
1632,1243306,61.755680,58.319702,34880638,5.448638,0,0
1633,1124705,55.864704,57.861328,34677626,5.451530,0,0
1634,1048034,52.056416,57.284180,35041586,5.439336,0,0
1635,1144083,56.827221,57.616440,34787258,5.409895,0,0
1636,1269028,63.033306,58.382507,35296359,5.370593,0,0
1637,1248744,62.025787,58.545502,34596949,5.340055,0,0
1638,1126339,55.945866,57.909485,34297555,5.330832,0,0
1639,1049447,52.126598,57.416031,35263382,5.346886,0,0
1640,1141867,56.717152,57.694122,35428609,5.380230,0,0
1641,1267901,62.977329,58.340500,35544160,5.416652,0,0
1642,1252073,62.191143,58.519165,34453411,5.444431,0,0
1643,1132868,56.270164,58.095398,34130004,5.460276,0,0
1644,1051677,52.237366,57.520309,35231838,5.462228,0,0
1645,1138845,56.567047,57.762100,35409963,5.454328,0,0
1646,1265854,62.875652,58.403595,35542277,5.444675,0,0
1647,1254626,62.317951,58.574417,34390935,5.445184,0,0
1648,1135250,56.388481,58.046280,33801515,5.458409,0,0
1649,1055364,52.420502,57.566727,35129887,5.478274,0,0
1650,1137903,56.520256,57.836075,35542857,5.493985,0,0
1651,1262660,62.717003,58.440994,35510515,5.498240,0,0
1652,1254821,62.327637,58.580994,34365171,5.493217,0,0
1653,1136463,56.448730,58.068756,33916187,5.486053,0,0
1654,1053120,52.309040,57.425644,34885788,5.477993,0,0
1655,1132685,56.261074,57.652100,34819362,5.466551,0,0
1656,1260803,62.624767,58.370178,35141295,5.449492,0,0
1657,1256694,62.420670,58.554794,34570178,5.429799,0,0
1658,1137370,56.493782,58.019211,34060398,5.410856,0,0
1659,1049965,52.152328,57.373474,34848901,5.393183,0,0
1660,1124878,55.873299,57.520172,34731603,5.375771,0,0
1661,1251469,62.161140,58.058304,35013771,5.354347,0,0
1662,1246078,61.893368,58.073212,34418722,5.324983,0,0
1663,1128595,56.057922,57.505920,33850241,5.282599,0,0
1664,1040962,51.705147,56.866867,34692156,5.219236,0,0
1665,1115960,55.430336,57.038391,34662689,5.132157,0,0
1666,1249591,62.067860,57.760025,34867469,5.030513,0,0
1667,1251716,62.173409,58.098267,34199896,4.940276,0,0
1668,1138937,56.571617,57.750778,33576191,4.890764,0,0
1669,1050666,52.187149,57.272064,34589429,4.900402,0,0
1670,1121296,55.695377,57.499176,34548958,4.971293,0,0
1671,1253969,62.285316,58.166946,34688884,5.089231,0,0
1672,1257355,62.453503,58.420258,34093389,5.231356,0,0
1673,1138425,56.546185,57.822449,33662575,5.366497,0,0
1674,1048413,52.075241,57.220566,34880451,5.464851,0,0
1675,1116440,55.454178,57.365097,35123636,5.506080,0,0
1676,1246994,61.938866,57.934586,35100660,5.488539,0,0
1677,1252578,62.216225,58.092010,33907490,5.428604,0,0
1678,1141497,56.698772,57.775253,33193776,5.357168,0,0
1679,1049212,52.114925,57.154327,35785999,5.297855,0,0
1680,1114792,55.372322,57.295868,37513611,5.265023,0,0
1681,1246119,61.895405,57.981461,37314658,5.261678,0,0
1682,1256994,62.435570,58.308304,35668740,5.289035,0,0
1683,1145851,56.915039,57.836517,35191280,5.337758,0,0
1684,1051973,52.252068,57.261490,37081072,5.393836,0,0
1685,1109303,55.099678,57.281265,37238965,5.440375,0,0
1686,1240884,61.635380,57.925995,37501842,5.467958,0,0
1687,1254100,62.291824,58.129898,37580369,5.473943,0,0
1688,1143037,56.775265,57.617447,36595929,5.462872,0,0
1689,1048460,52.077576,56.980759,36994382,5.436644,0,0
1690,1106821,54.976398,57.173523,36726982,5.400584,0,0
1691,1236827,61.433865,57.772415,36995225,5.359930,0,0
1692,1251109,62.143261,57.970947,36578109,5.324768,0,0
1693,1144624,56.854092,57.601868,35692114,5.305752,0,0
1694,1048023,52.055870,56.965118,37307143,5.304867,0,0
1695,1101277,54.701023,56.978485,37739632,5.314538,0,0
1696,1233224,61.254902,57.635086,37751693,5.325147,0,0
1697,1252639,62.219257,57.982834,37066341,5.334405,0,0
1698,1147181,56.981098,57.558655,36205904,5.342169,0,0
1699,1052407,52.273624,57.035202,37183991,5.350005,0,0
1700,1101411,54.707680,57.109802,36966434,5.360213,0,0
1701,1233399,61.263596,57.769485,37143537,5.378009,0,0
1702,1258032,62.487129,58.139923,36860378,5.409775,0,0
1703,1155534,57.396000,57.828903,35942001,5.461053,0,0
1704,1056878,52.495701,57.207733,37223019,5.525803,0,0
1705,1101191,54.696751,57.279449,37675404,5.592586,0,0
1706,1234428,61.314705,57.967316,37645366,5.650999,0,0
1707,1259604,62.565212,58.229202,36655715,5.696664,0,0
1708,1158371,57.536915,57.848770,35544189,5.730534,0,0
1709,1058366,52.569611,57.253448,37387070,5.752960,0,0
1710,1100265,54.650757,57.330170,38240640,5.765238,0,0
1711,1227953,60.993088,57.820206,38168278,5.765120,0,0
1712,1253915,62.282635,58.063675,37049585,5.755795,0,0
1713,1152997,57.269985,57.597885,35618173,5.738774,0,0
1714,1050480,52.177910,56.891373,37096219,5.710836,0,0
1715,1086148,53.949558,56.720810,37669362,5.661813,0,0
1716,1217362,60.467030,57.331955,37557193,5.589019,0,0
1717,1252948,62.234604,57.751968,35940906,5.500945,0,0
1718,1155215,57.380154,57.413055,33386030,5.414977,0,0
1719,1053234,52.314701,56.846680,34285455,5.348318,0,0
1720,1086351,53.959641,56.875610,34773978,5.315161,0,0
1721,1219697,60.583008,57.571594,34665672,5.324304,0,0
1722,1256234,62.397823,57.869781,34049881,5.373579,0,0
1723,1162280,57.731075,57.622894,32848228,5.455123,0,0
1724,1057168,52.510105,57.013275,33324764,5.547754,0,0
1725,1086811,53.982491,57.038071,32255917,5.630169,0,0
1726,1220337,60.614799,57.660660,32269956,5.685775,0,0
1727,1260819,62.625561,58.075851,32885508,5.716932,0,0
1728,1165307,57.881428,57.704880,32259755,5.734167,0,0
1729,1061094,52.705112,57.165497,33481201,5.750615,0,0
1730,1087505,54.016960,57.147247,34118812,5.772038,0,0
1731,1220108,60.603424,57.748230,34122125,5.799702,0,0
1732,1262284,62.698330,58.115036,32343594,5.830917,0,0
1733,1169284,58.078968,57.853851,30741029,5.864577,0,0
1734,1064138,52.856308,57.254364,33094065,5.894695,0,0
1735,1089259,54.104084,57.236084,34514663,5.916219,0,0
1736,1220583,60.627018,57.850433,34512273,5.928210,0,0
1737,1263954,62.781277,58.235947,34036180,5.937179,0,0
1738,1173066,58.266823,57.972168,33046294,5.951550,0,0
1739,1068205,53.058319,57.396500,33654158,5.973883,0,0
1740,1086682,53.976082,57.231506,33260582,5.997780,0,0
1741,1219935,60.594830,57.887512,33380963,6.016946,0,0
1742,1266284,62.897011,58.318390,33628999,6.028522,0,0
1743,1175685,58.396908,58.019623,32233369,6.035244,0,0
1744,1066572,52.977207,57.316620,32879919,6.035230,0,0
1745,1084464,53.865913,57.268448,33038207,6.029166,0,0
1746,1219001,60.548439,57.876373,33067066,6.017209,0,0
1747,1267867,62.975639,58.283646,32791153,6.003675,0,0
1748,1176228,58.423882,57.959564,31259703,5.993026,0,0
1749,1069933,53.144150,57.448196,32040200,5.989267,0,0
1750,1085903,53.937389,57.370316,32208707,5.990140,0,0
1751,1215663,60.382637,57.861526,32244492,5.991754,0,0
1752,1269163,63.040012,58.308319,32363166,5.994309,0,0
1753,1183929,58.806393,58.187210,31245704,6.004036,0,0
1754,1074331,53.362602,57.565292,31901231,6.020685,0,0
1755,1085950,53.939724,57.411438,31508766,6.038959,0,0
1756,1216362,60.417358,58.076279,31487665,6.056303,0,0
1757,1273129,63.237007,58.535339,32234486,6.074339,0,0
1758,1190235,59.119614,58.302216,31654787,6.096203,0,0
1759,1078539,53.571613,57.704895,32202433,6.120989,0,0
1760,1086444,53.964260,57.582367,31596047,6.145388,0,0
1761,1218634,60.530209,58.254318,31465983,6.166039,0,0
1762,1275027,63.331280,58.649719,31988494,6.181188,0,0
1763,1193365,59.275085,58.390869,31136553,6.194120,0,0
1764,1082388,53.762798,57.834381,32001321,6.205260,0,0
1765,1086839,53.983879,57.703201,32109316,6.212758,0,0
1766,1218587,60.527874,58.271561,32100717,6.213536,0,0
1767,1279687,63.562744,58.803207,31978544,6.210844,0,0
1768,1199196,59.564713,58.607361,30138929,6.212152,0,0
1769,1086329,53.958549,57.996918,30894278,6.220413,0,0
1770,1087182,54.000916,57.835907,31655174,6.232805,0,0
1771,1215445,60.371811,58.338669,31557950,6.244104,0,0
1772,1280482,63.602234,58.815430,30835229,6.250964,0,0
1773,1202851,59.746258,58.635498,28807708,6.252615,0,0
1774,1088641,54.073387,58.026733,29286736,6.247134,0,0
1775,1083418,53.813957,57.763321,29212585,6.229502,0,0
1776,1210140,60.108307,58.304916,29144532,6.199359,0,0
1777,1276469,63.402905,58.688324,30186600,6.159718,0,0
1778,1200705,59.639668,58.436356,29738363,6.117706,0,0
1779,1086416,53.962872,57.791962,30102054,6.074574,0,0
1780,1078525,53.570919,57.563797,29237940,6.027981,0,0
1781,1206557,59.930340,58.143005,28961669,5.975664,0,0
1782,1275677,63.363567,58.603714,30054253,5.920557,0,0
1783,1201932,59.700611,58.408859,29509755,5.872589,0,0
1784,1088325,54.057690,57.808640,29939251,5.838896,0,0
1785,1077884,53.539082,57.599045,29245739,5.821498,0,0
1786,1205298,59.867802,58.136292,29027829,5.817174,0,0
1787,1277539,63.456051,58.653473,29948075,5.822441,0,0
1788,1203334,59.770248,58.453415,29243322,5.834250,0,0
1789,1089282,54.105225,57.839966,29742943,5.846650,0,0
1790,1076413,53.466015,57.593369,29345839,5.851413,0,0
1791,1203601,59.783512,58.127396,29140285,5.844871,0,0
1792,1275868,63.373055,58.565018,29601899,5.828007,0,0
1793,1204432,59.824787,58.436264,28765766,5.809544,0,0
1794,1089732,54.127579,57.818527,29632815,5.793726,0,0
1795,1074515,53.371742,57.547073,29990524,5.780217,0,0
1796,1199774,59.593422,58.025208,29973046,5.765039,0,0
1797,1274873,63.323631,58.537720,29952151,5.748482,0,0
1798,1206115,59.908382,58.398102,28785558,5.734090,0,0
1799,1091996,54.240032,57.820953,29792802,5.723878,0,0
1800,1073339,53.313328,57.524780,30350736,5.715470,0,0
1801,1199131,59.561485,58.083694,30304191,5.708589,0,0
1802,1276913,63.424957,58.620651,30515618,5.704938,0,0
1803,1210894,60.145760,58.512741,29394026,5.710773,0,0
1804,1095073,54.392868,57.908844,30000018,5.726656,0,0
1805,1073954,53.343876,57.648788,29992014,5.748819,0,0
1806,1196587,59.435123,58.125992,29840672,5.769871,0,0
1807,1278218,63.489780,58.673843,30365046,5.785962,0,0
1808,1215647,60.381844,58.582016,29622491,5.798296,0,0
1809,1098346,54.555439,57.998260,30279958,5.808209,0,0
1810,1072484,53.270859,57.666031,30275725,5.813312,0,0
1811,1192847,59.249355,58.154938,30014629,5.812740,0,0
1812,1274829,63.321445,58.602814,30640387,5.806207,0,0
1813,1214823,60.340916,58.452805,30002961,5.797027,0,0
1814,1097631,54.519924,57.849579,30695426,5.784092,0,0
1815,1069231,53.109280,57.521118,30521170,5.763288,0,0
1816,1188105,59.013817,57.995819,30148263,5.731386,0,0
1817,1273364,63.248676,58.527557,30862377,5.691730,0,0
1818,1215648,60.381893,58.411896,30240384,5.654943,0,0
1819,1099613,54.618370,57.837479,30685321,5.629751,0,0
1820,1066625,52.979839,57.462616,30251454,5.617023,0,0
1821,1185959,58.907223,57.974579,29861338,5.614677,0,0
1822,1275169,63.338333,58.549561,30818689,5.618800,0,0
1823,1216031,60.400917,58.410980,30383492,5.627982,0,0
1824,1097411,54.508999,57.744949,30719675,5.636620,0,0
1825,1066165,52.956993,57.481995,30282347,5.640036,0,0
1826,1183092,58.764820,57.909653,29914146,5.634038,0,0
1827,1273165,63.238792,58.397995,30654697,5.619249,0,0
1828,1219928,60.594482,58.432983,29892601,5.604633,0,0
1829,1100757,54.675194,57.879272,30349889,5.598153,0,0
1830,1062402,52.770081,57.406906,30890538,5.598671,0,0
1831,1176488,58.436794,57.794601,30928087,5.601043,0,0
1832,1269714,63.067379,58.338226,30851285,5.601678,0,0
1833,1216170,60.407822,58.174927,29203897,5.597305,0,0
1834,1098924,54.584148,57.598724,29629193,5.583302,0,0
1835,1060866,52.693787,57.269302,30726523,5.555927,0,0
1836,1180453,58.633739,57.882736,30877794,5.521235,0,0
1837,1278991,63.528175,58.564529,30805545,5.492207,0,0
1838,1231234,61.156059,58.707047,29413417,5.493865,0,0
1839,1115825,55.423630,58.295319,29710183,5.545199,0,0
1840,1072796,53.286358,58.015091,30256800,5.651178,0,0
1841,1184554,58.837437,58.402878,30156063,5.796884,0,0
1842,1278388,63.498222,58.873749,30521520,5.954367,0,0
1843,1230786,61.133804,58.801987,29596170,6.092535,0,0
1844,1112658,55.266323,58.128647,29970888,6.179676,0,0
1845,1064426,52.870613,57.634232,30365809,6.193051,0,0
1846,1176487,58.436745,58.038574,30209193,6.130679,0,0
1847,1276047,63.381943,58.677551,30498273,6.015764,0,0
1848,1229842,61.086918,58.600082,29376305,5.886591,0,0
1849,1111545,55.211040,57.995697,29729918,5.779954,0,0
1850,1063831,52.841061,57.632111,30630633,5.717446,0,0
1851,1173177,58.272335,58.012741,30802887,5.700984,0,0
1852,1274071,63.283794,58.557434,30847283,5.715866,0,0
1853,1230918,61.140362,58.558823,29906886,5.743946,0,0
1854,1114701,55.367802,58.061905,29925976,5.768739,0,0
1855,1065369,52.917454,57.648453,29522213,5.776999,0,0
1856,1168698,58.049862,57.976822,29025236,5.765555,0,0
1857,1270534,63.108109,58.517288,31448240,5.741883,0,0
1858,1232774,61.232552,58.574173,32581976,5.721920,0,0
1859,1116731,55.468632,58.015411,32522767,5.714445,0,0
1860,1060783,52.689663,57.455811,31746649,5.714684,0,0
1861,1165936,57.912670,57.932663,31219603,5.715327,0,0
1862,1273167,63.238892,58.605988,31790621,5.710876,0,0
1863,1236555,61.420357,58.607910,30991344,5.704229,0,0
1864,1119382,55.600307,58.034378,31493204,5.699658,0,0
1865,1063768,52.837933,57.696091,32602249,5.704198,0,0
1866,1165458,57.888927,58.056961,32843085,5.719715,0,0
1867,1272434,63.202484,58.598999,32925249,5.743594,0,0
1868,1239877,61.585361,58.675842,31749231,5.774213,0,0
1869,1123087,55.784340,58.169632,31817424,5.807169,0,0
1870,1065148,52.906475,57.736115,32743740,5.833095,0,0
1871,1165733,57.902588,58.119049,32788338,5.845634,0,0
1872,1271166,63.139503,58.673416,33074767,5.845675,0,0
1873,1242811,61.731094,58.759415,32042140,5.843543,0,0
1874,1127522,56.004627,58.271439,31965598,5.847702,0,0
1875,1065970,52.947308,57.789276,32544113,5.859385,0,0
1876,1161382,57.686470,58.053696,32431952,5.872346,0,0
1877,1273163,63.238693,58.788849,32698843,5.883277,0,0
1878,1247249,61.951530,58.859512,31780566,5.891944,0,0
1879,1131121,56.183392,58.325714,31660233,5.899940,0,0
1880,1067932,53.044758,57.878494,32152443,5.906181,0,0
1881,1164363,57.834538,58.327820,31986948,5.914899,0,0
1882,1277208,63.439610,58.947403,32490038,5.928197,0,0
1883,1253688,62.271358,59.069305,32025025,5.952661,0,0
1884,1139427,56.595955,58.644669,31828468,5.991529,0,0
1885,1073192,53.306026,58.205002,32132015,6.040951,0,0
1886,1166999,57.965469,58.557281,31900727,6.092199,0,0
1887,1280565,63.606354,59.174774,32420324,6.137524,0,0
1888,1259953,62.582546,59.340576,31599216,6.177749,0,0
1889,1145756,56.910320,58.859024,31158549,6.213062,0,0
1890,1076172,53.454044,58.390274,31664566,6.241609,0,0
1891,1169310,58.080261,58.743912,31283587,6.261570,0,0
1892,1282546,63.704754,59.358749,31991736,6.273390,0,0
1893,1262756,62.721771,59.466309,32328959,6.282080,0,0
1894,1151290,57.185196,59.018845,32380396,6.291718,0,0
1895,1080655,53.676716,58.583984,30742756,6.302210,0,0
1896,1168296,58.029892,58.812668,28689627,6.308961,0,0
1897,1284169,63.785370,59.486862,29594235,6.310389,0,0
1898,1269222,63.042942,59.701767,30432162,6.311339,0,0
1899,1158456,57.541134,59.241226,30280735,6.317082,0,0
1900,1085712,53.927902,58.763412,30246719,6.327301,0,0
1901,1167829,58.006699,59.025024,29956199,6.339803,0,0
1902,1284887,63.821030,59.663452,30720312,6.352266,0,0
1903,1272410,63.201294,59.798737,30356963,6.363885,0,0
1904,1161291,57.681950,59.303925,29554415,6.372779,0,0
1905,1084792,53.882206,58.733078,29717475,6.371613,0,0
1906,1167290,57.979923,59.082520,29337827,6.356579,0,0
1907,1285948,63.873734,59.710464,30210459,6.327091,0,0
1908,1275081,63.333961,59.845947,30293398,6.292454,0,0
1909,1164671,57.849838,59.388641,29887765,6.262550,0,0
1910,1087912,54.037178,58.923065,29894269,6.244104,0,0
1911,1168478,58.038933,59.188354,29389309,6.236784,0,0
1912,1286787,63.915405,59.786316,30150858,6.236304,0,0
1913,1280063,63.581421,60.019821,30229285,6.242406,0,0
1914,1171615,58.194752,59.626297,29773909,6.254026,0,0
1915,1091444,54.212612,59.102676,29973196,6.266127,0,0
1916,1166686,57.949924,59.267365,29491292,6.272149,0,0
1917,1287148,63.933338,59.927719,30273125,6.270696,0,0
1918,1284125,63.783184,60.140015,30521085,6.265753,0,0
1919,1174999,58.362835,59.669189,30097282,6.260384,0,0
1920,1092468,54.263477,59.130264,30058246,6.252377,0,0
1921,1166736,57.952408,59.394409,29318081,6.239828,0,0
1922,1287146,63.933239,60.005432,29866841,6.221251,0,0
1923,1286051,63.878849,60.171478,29993165,6.200722,0,0
1924,1177709,58.497444,59.734909,29651575,6.183271,0,0
1925,1094183,54.348660,59.216141,29839289,6.169884,0,0
1926,1167492,57.989960,59.452118,29298881,6.158029,0,0
1927,1290646,64.107086,60.136337,29845239,6.146125,0,0
1928,1290436,64.096657,60.344315,30146914,6.137784,0,0
1929,1183043,58.762386,59.952377,29769863,6.137877,0,0
1930,1099030,54.589413,59.454224,29857756,6.146383,0,0
1931,1166952,57.963135,59.589432,29205676,6.158978,0,0
1932,1288855,64.018127,60.158829,29879500,6.168840,0,0
1933,1293238,64.235832,60.438354,30299335,6.174475,0,0
1934,1186322,58.925255,60.019180,29895844,6.174295,0,0
1935,1100581,54.666454,59.450928,29927316,6.164123,0,0
1936,1167433,57.987026,59.665619,29031609,6.142549,0,0
1937,1288671,64.008987,60.279358,29537629,6.113258,0,0
1938,1294949,64.320816,60.494629,30129676,6.085749,0,0
1939,1188255,59.021267,60.058289,29921541,6.067482,0,0
1940,1100908,54.682693,59.487640,29695555,6.058681,0,0
1941,1164547,57.843678,59.608719,28451316,6.051661,0,0
1942,1289180,64.034264,60.294510,28898536,6.039232,0,0
1943,1298527,64.498535,60.553635,29732180,6.020468,0,0
1944,1193715,59.292469,60.190247,29526742,6.000788,0,0
1945,1104207,54.846558,59.639526,29258630,5.984075,0,0
1946,1164132,57.823067,59.775375,28014843,5.974322,0,0
1947,1289035,64.027061,60.380020,28630144,5.972177,0,0
1948,1300955,64.619141,60.638870,29485980,5.979144,0,0
1949,1197607,59.485786,60.255630,29155867,5.992705,0,0
1950,1104901,54.881031,59.666122,29155867,6.003547,0,0
1951,1161479,57.691288,59.783524,28289163,6.001913,0,0
1952,1287474,63.949528,60.387970,28688763,5.983114,0,0
1953,1302437,64.692749,60.657959,29253780,5.953489,0,0
1954,1200294,59.619251,60.253067,28931714,5.922882,0,0
1955,1106043,54.937752,59.693344,29079659,5.898043,0,0
1956,1161482,57.691437,59.842300,28240155,5.880962,0,0
1957,1287926,63.971981,60.462830,28529716,5.870384,0,0
1958,1305803,64.859940,60.761673,28964215,5.867371,0,0
1959,1203560,59.781475,60.361145,28464465,5.871854,0,0
1960,1109360,55.102512,59.839233,28967738,5.881290,0,0
1961,1159091,57.572678,59.859360,28417532,5.888160,0,0
1962,1286900,63.921017,60.496643,28750581,5.888699,0,0
1963,1308291,64.983521,60.799713,29176769,5.883489,0,0
1964,1206821,59.943451,60.444748,28559142,5.877449,0,0
1965,1111809,55.224155,59.866776,28867364,5.870409,0,0
1966,1158698,57.553154,59.957092,28129675,5.862260,0,0
1967,1286768,63.914463,60.578842,28391900,5.853199,0,0
1968,1308828,65.010193,60.831100,28874456,5.846393,0,0
1969,1211400,60.170891,60.545288,28407684,5.846783,0,0
1970,1114267,55.346245,59.936874,28809990,5.851910,0,0
1971,1156569,57.447407,59.973938,28231658,5.856417,0,0
1972,1285282,63.840652,60.581161,28404789,5.853922,0,0
1973,1311349,65.135414,60.942947,28905274,5.847111,0,0
1974,1213670,60.283646,60.544128,28311472,5.839039,0,0
1975,1114085,55.337204,59.924545,28787287,5.830592,0,0
1976,1155869,57.412640,60.012405,28245414,5.821045,0,0
1977,1283309,63.742653,60.586105,28483968,5.808918,0,0
1978,1309812,65.059067,60.854340,28948777,5.795172,0,0
1979,1212850,60.242916,60.465408,28220777,5.781222,0,0
1980,1112843,55.275513,59.881104,28734293,5.766029,0,0
1981,1151959,57.218426,59.848785,28145448,5.744046,0,0
1982,1279534,63.555145,60.436371,28313541,5.712674,0,0
1983,1311436,65.139732,60.818558,28915844,5.677322,0,0
1984,1215912,60.395004,60.501755,28388511,5.647684,0,0
1985,1112352,55.251125,59.861130,28721128,5.627964,0,0
1986,1146778,56.961082,59.781113,27910833,5.616584,0,0
1987,1275523,63.355915,60.386337,28039818,5.610242,0,0
1988,1307330,64.935791,60.617294,28595367,5.603562,0,0
1989,1207187,59.961632,60.113205,27932936,5.589424,0,0
1990,1102038,54.738823,59.411163,28459724,5.556974,0,0
1991,1131271,56.190842,59.234985,28075670,5.495732,0,0
1992,1256176,62.394939,59.590714,28166642,5.398698,0,0
1993,1290907,64.120049,59.762146,28545325,5.269601,0,0
1994,1196278,59.419773,59.407898,27731642,5.123663,0,0
1995,1091106,54.195824,58.684906,28510631,4.974378,0,0
1996,1119779,55.620029,58.594955,28523816,4.834198,0,0
1997,1247555,61.966732,59.166077,28553135,4.714735,0,0
1998,1286487,63.900505,59.499496,28603843,4.629281,0,0
1999,1193170,59.265400,59.123032,27781355,4.584336,0,0
2000,1090003,54.141037,58.529160,28651238,4.577400,0,0
2001,1115569,55.410915,58.450455,28458127,4.596464,0,0
2002,1243383,61.759506,59.022491,28439699,4.627183,0,0
2003,1285079,63.830566,59.384918,28684054,4.659392,0,0
2004,1194753,59.344028,59.104797,27887643,4.691251,0,0
2005,1086934,53.988598,58.391922,29078798,4.719111,0,0
2006,1110446,55.156452,58.313583,29828889,4.741570,0,0
2007,1239544,61.568821,58.894363,29899659,4.758425,0,0
2008,1282169,63.686028,59.225357,29067883,4.773720,0,0
2009,1192976,59.255764,58.884430,28233505,4.790732,0,0
2010,1085799,53.932224,58.301041,31742161,4.810118,0,0
2011,1104066,54.839554,58.137573,34739189,4.827132,0,0
2012,1230849,61.136936,58.606003,35337107,4.836638,0,0
2013,1276145,63.386810,58.947479,34424452,4.838544,0,0
2014,1188558,59.036320,58.603607,33722211,4.836912,0,0
2015,1083905,53.838146,58.013519,36176569,4.833375,0,0
2016,1105021,54.886990,58.021194,37341919,4.829687,0,0
2017,1237561,61.470322,58.771072,37356068,4.834165,0,0
2018,1287818,63.966618,59.313629,37142715,4.861440,0,0
2019,1205036,59.854790,59.249329,36191235,4.931008,0,0
2020,1096524,54.464939,58.697037,37315878,5.050813,0,0
2021,1107926,55.031284,58.526306,37453784,5.212493,0,0
2022,1233960,61.291458,58.986710,37394638,5.390479,0,0
2023,1286322,63.892307,59.377625,37483845,5.554667,0,0
2024,1205127,59.859310,59.093643,36572048,5.676031,0,0
2025,1095057,54.392075,58.461182,37669377,5.734044,0,0
2026,1105216,54.896675,58.377533,37977091,5.726275,0,0
2027,1232473,61.217598,58.992813,37932674,5.672888,0,0
2028,1288132,63.982212,59.418365,37891907,5.609886,0,0
2029,1207773,59.990738,59.142273,36839058,5.574381,0,0
2030,1098453,54.560753,58.585373,38277285,5.587447,0,0
2031,1105296,54.900650,58.452332,38971575,5.644915,0,0
2032,1232637,61.225746,59.052917,38955051,5.725792,0,0
2033,1291234,64.136292,59.503143,38962453,5.805135,0,0
2034,1210245,60.113522,59.263214,37822501,5.867391,0,0
2035,1094796,54.379108,58.530548,38203301,5.902246,0,0
2036,1091566,54.218674,58.152771,37511651,5.905310,0,0
2037,1209226,60.062908,58.365509,37887404,5.873338,0,0
2038,1260362,62.602863,58.351395,39942341,5.800802,0,0
2039,1178248,58.524216,57.783554,39562572,5.679836,0,0
2040,1066200,52.958729,56.938385,39703761,5.499790,0,0
2041,1066493,52.973282,56.621033,39275147,5.258317,0,0
2042,1189868,59.101387,57.086243,39263819,4.972085,0,0
2043,1252394,62.207088,57.609833,39253665,4.684857,0,0
2044,1177354,58.479809,57.454971,37325260,4.453713,0,0
2045,1063894,52.844189,56.772064,37908627,4.323030,0,0
2046,1061535,52.727016,56.518524,38911469,4.307714,0,0
2047,1187761,58.996731,57.092514,38672056,4.391573,0,0
2048,1247403,61.959183,57.416229,36641790,4.530804,0,0
2049,1173615,58.294090,57.170151,32678471,4.674631,0,0
2050,1063585,52.828842,56.633743,32488951,4.780523,0,0
2051,1058282,52.565437,56.413162,33576668,4.828717,0,0
2052,1182447,58.732780,56.856812,33362959,4.824738,0,0
2053,1248161,61.996830,57.395905,31501853,4.800440,0,0
2054,1177721,58.498039,57.263702,28744940,4.795943,0,0
2055,1065943,52.945965,56.643127,31866591,4.834836,0,0
2056,1057406,52.521927,56.430725,37477019,4.916275,0,0
2057,1180185,58.620426,56.948883,40363000,5.022764,0,0
2058,1250227,62.099449,57.456467,39398627,5.131740,0,0
2059,1181587,58.690063,57.297058,38964190,5.226424,0,0
2060,1070700,53.182247,56.758728,44034916,5.300591,0,0
2061,1057750,52.539013,56.524094,48401313,5.355597,0,0
2062,1179659,58.594299,57.083099,49251813,5.401691,0,0
2063,1250878,62.131786,57.516373,48396642,5.449813,0,0
2064,1184856,58.852436,57.387619,46632515,5.511155,0,0
2065,1073481,53.320381,56.799545,47535063,5.583884,0,0
2066,1056345,52.469227,56.544693,48432934,5.657611,0,0
2067,1177776,58.500771,57.070953,48495410,5.719637,0,0
2068,1253973,62.285515,57.613968,48046166,5.766204,0,0
2069,1190186,59.117180,57.509262,46105217,5.803930,0,0
2070,1076630,53.476795,56.903458,46736752,5.840661,0,0
2071,1057452,52.524212,56.691040,47075239,5.882697,0,0
2072,1177609,58.492474,57.199249,46885045,5.932005,0,0
2073,1252396,62.207188,57.612823,47853127,5.986094,0,0
2074,1191406,59.177780,57.491409,47871045,6.041659,0,0
2075,1078941,53.591583,56.948837,47822544,6.091788,0,0
2076,1057322,52.517754,56.677902,45608485,6.127996,0,0
2077,1177940,58.508915,57.199982,44567505,6.146862,0,0
2078,1256743,62.423103,57.788330,46107264,6.156461,0,0
2079,1196931,59.452209,57.696548,46113984,6.172224,0,0
2080,1082680,53.777302,57.118210,46334774,6.204433,0,0
2081,1058124,52.557590,56.828583,45832057,6.253263,0,0
2082,1176181,58.421547,57.282120,45585928,6.310633,0,0
2083,1255787,62.375618,57.764572,46527388,6.364204,0,0
2084,1196222,59.416992,57.624512,45963720,6.404387,0,0
2085,1083454,53.815746,57.076691,46192280,6.424639,0,0
2086,1057283,52.515820,56.769791,45485236,6.421628,0,0
2087,1174403,58.333233,57.250534,45020655,6.400522,0,0
2088,1258291,62.499992,57.812775,46350566,6.374457,0,0
2089,1201731,59.690628,57.792908,46082606,6.362616,0,0
2090,1087624,54.022873,57.220840,46275666,6.374942,0,0
2091,1057445,52.523865,56.879944,46494503,6.408812,0,0
2092,1173267,58.276806,57.362228,46524033,6.453589,0,0
2093,1261617,62.665199,57.934250,44893771,6.497721,0,0
2094,1205899,59.897655,57.866226,39330633,6.534344,0,0
2095,1088283,54.055603,57.245346,36607893,6.558013,0,0
2096,1055842,52.444244,56.924393,37178480,6.566398,0,0
2097,1170033,58.116173,57.366364,35921611,6.560422,0,0
2098,1257210,62.446301,57.779129,32674567,6.543018,0,0
2099,1201570,59.682632,57.625961,28264360,6.519788,0,0
2100,1087034,53.993565,57.098801,27539834,6.493742,0,0
2101,1050563,52.182034,56.684082,28286664,6.460504,0,0
2102,1162833,57.758545,57.063171,28279700,6.415339,0,0
2103,1250194,62.097813,57.513550,28696485,6.357658,0,0
2104,1200842,59.646469,57.511169,27657541,6.298745,0,0
2105,1086670,53.975487,56.899475,27806535,6.245764,0,0
2106,1048206,52.064957,56.534821,27773653,6.203513,0,0
2107,1156786,57.458187,56.893982,27572871,6.170898,0,0
2108,1248555,62.016403,57.499649,28519351,6.149399,0,0
2109,1203406,59.773827,57.467773,28209357,6.139350,0,0
2110,1089279,54.105076,56.895004,28282063,6.139471,0,0
2111,1046581,51.984245,56.490311,27849434,6.143113,0,0
2112,1155457,57.392174,56.972672,27414600,6.147223,0,0
2113,1249707,62.073624,57.549606,28478468,6.150698,0,0
2114,1201887,59.698376,57.390442,28311893,6.155456,0,0
2115,1068780,53.086880,56.362778,28604743,6.151359,0,0
2116,1009347,50.134811,55.455444,28505472,6.115656,0,0
2117,1113323,55.299355,55.426453,28052109,6.017447,0,0
2118,1207909,59.997494,55.505508,28641709,5.828460,0,0
2119,1164101,57.821526,55.100067,28153651,5.538360,0,0
2120,1053322,52.319073,54.771927,28683278,5.171355,0,0
2121,1007207,50.028515,54.619904,28887748,4.780767,24,0
2122,1112684,55.267616,55.046036,28513173,4.439653,0,0
2123,1206804,59.942608,55.541840,29057458,4.218581,0,0
2124,1167480,57.989361,55.620743,28640850,4.170274,0,0
2125,1054096,52.357517,54.935760,28947683,4.289458,0,0
2126,1003976,49.868031,54.414627,28590787,4.514935,0,0
2127,1106052,54.938202,54.752563,27944139,4.755137,0,0
2128,1206667,59.935802,55.474350,28774537,4.932434,0,0
2129,1168863,58.058056,55.513382,28642228,5.006569,0,0
2130,1057232,52.513283,54.970139,28753215,4.988619,0,0
2131,1004959,49.916855,54.514832,28955172,4.925722,0,0
2132,1105190,54.895386,54.915543,29290719,4.879714,0,0
2133,1204990,59.852505,55.434753,29113552,4.892120,0,0
2134,1173181,58.272533,55.557755,28389321,4.976682,0,0
2135,1061032,52.702034,55.032608,33329514,5.109373,0,0
